,0,1,2,3,4,5,6,7,8,9,10,11,12,13,14,15,16,17,18,19,20,21,22,23,24,25,26,27,28,29,30,31,32,33,34,35,36,37,38,39,40,41,42,43,44,45,46,47,48,49,50,51,52,53,54,55,56,57,58,59,60,61,62,63,64,65,66,67,68,69,70,71,72,73,74,75,76,77,78,79,80,81,82,83,84,85,86,87,88,89,90,91,92,93,94,95,96,97,98,99,100,101,102,103,104,105,106,107,108,109,110,111,112,113,114,115,116,117,118,119,120,121,122,123,124,125,126,127,128,129,130,131,132,133,134,135,136,137,138,139,140,141,142,143,144,145,146,147,148,149,150,151,152,153,154,155,156,157,158,159,160,161,162,163,164,165,166,167,168,169,170,171,172,173,174,175,176,177,178,179,180,181,182,183,184,185,186,187,188,189,190,191,192,193,194,195,196,197,198,199,200,201,202,203,204,205,206,207,208,209,210,211,212,213,214,215,216,217,218,219,220,221,222,223,224,225,226,227,228,229,230,231,232,233,234,235,236,237,238,239,240,241,242,243,244,245,246,247,248,249,250,251,252,253,254,255,256,257,258,259,260,261,262,263,264,265,266,267,268,269,270,271,272,273,274,275,276,277,278,279,280,281,282,283,284,285,286,287,288,289,290,291,292,293,294,295,296,297,298,299,300,301,302,303,304,305,306,307,308,309,310,311,312,313,314,315,316,317,318,319,320,321,322,323,324,325,326,327,328,329,330,331,332,333,334,335,336,337,338,339,340,341,342,343,344,345,346,347,348,349,350,351,352,353,354,355,356,357,358,359,360,361,362,363,364,365,366,367,368,369,370,371,372,373,374,375,376,377,378,379,380,381,382,383,384,385,386,387,388,389,390,391,392,393,394,395,396,397,398,399,400,401,402,403,404,405,406,407,408,409,410,411,412,413,414,415,416,417,418,419,420,421,422,423,424,425,426,427,428,429,430,431,432,433,434,435,436,437,438,439,440,441,442,443,444,445,446,447,448,449,450,451,452,453,454,455,456,457,458,459,460,461,462,463,464,465,466,467,468,469,470,471,472,473,474,475,476,477,478,479,480,481,482,483,484,485,486,487,488,489,490,491,492,493,494,495,496,497,498,499,500,501,502,503,504,505,506,507,508,509,510,511,512,513,514,515,516,517,518,519,520,521,522,523,524,525,526,527,528,529,530,531,532,533,534,535,536,537,538,539,540,541,542,543,544,545,546,547,548,549,550,551,552,553,554,555,556,557,558,559,560,561,562,563,564,565,566,567,568,569,570,571,572,573,574,575,576,577,578,579,580,581,582,583,584,585,586,587,588,589,590,591,592,593,594,595,596,597,598,599,600,601,602,603,604,605,606,607,608,609,610,611,612,613,614,615,616,617,618,619,620,621,622,623,624,625,626,627,628,629,630,631,632,633,634,635,636,637,638,639,640,641,642,643,644,645,646,647,648,649,650,651,652,653,654,655,656,657,658,659,660,661,662,663,664,665,666,667,668,669,670,671,672,673,674,675,676,677,678,679,680,681,682,683,684,685,686,687,688,689,690,691,692,693,694,695,696,697,698,699,700,701,702,703,704,705,706,707,708,709,710,711,712,713,714,715,716,717,718,719,720,721,722,723,724,725,726,727,728,729,730,731,732,733,734,735,736,737,738,739,740,741,742,743,744,745,746,747,748,749,target
person_abn1,-329,-225,-135,-66,-24,-19,-27,-21,-12,-14,-27,-39,-27,-10,-9,-24,-23,5,36,44,44,49,48,30,12,13,6,-43,-127,-197,-219,-205,-180,-150,-129,-126,-130,-118,-96,-64,-49,-62,-87,-91,-70,-54,-53,-42,-26,-29,-50,-49,-22,6,1,-14,-20,-27,-31,-38,-47,-65,-80,-84,-53,14,85,110,61,-37,-113,-135,-119,-108,-118,-129,-113,-119,-110,-37,-13,-251,-761,-917,161,2188,3464,2692,489,-1394,-1973,-1664,-1278,-1009,-721,-482,-339,-233,-166,-127,-106,-94,-90,-90,-90,-90,-87,-85,-84,-73,-60,-57,-60,-49,-23,2,10,3,-9,-11,-16,-38,-81,-130,-172,-212,-244,-259,-250,-221,-196,-186,-167,-142,-126,-128,-133,-122,-102,-87,-84,-90,-87,-88,-82,-82,-90,-94,-90,-75,-68,-68,-64,-43,-13,1,-6,-30,-47,-23,49,137,187,172,119,75,55,49,47,48,50,71,57,28,80,138,-16,-485,-850,-191,1670,3358,3246,1317,-847,-1873,-1757,-1321,-1003,-715,-469,-317,-212,-130,-77,-33,-3,12,4,-11,-20,-18,-11,-12,-16,-16,-11,-8,-9,1,31,60,66,41,22,34,47,15,-51,-117,-155,-175,-175,-166,-142,-123,-112,-108,-101,-90,-80,-70,-72,-67,-56,-50,-57,-62,-57,-37,-26,-35,-50,-62,-58,-53,-58,-73,-90,-87,-72,-65,-73,-94,-110,-125,-114,-66,3,63,64,9,-56,-90,-88,-77,-76,-90,-89,-107,-124,-48,33,-119,-615,-1003,-315,1634,3398,3287,1280,-986,-2066,-1959,-1501,-1156,-860,-603,-433,-302,-200,-148,-121,-97,-76,-58,-55,-47,-32,-19,-28,-41,-47,-41,-25,-10,4,16,30,55,72,84,87,83,47,-21,-91,-132,-150,-159,-156,-128,-97,-84,-84,-85,-64,-37,-58,-107,-69,151,456,632,684,854,1328,1985,2366,2038,995,-210,-936,-1005,-819,-866,-1217,-1640,-1947,-2025,-1832,-1455,-1050,-745,-563,-431,-292,-168,-77,-46,-79,-144,-191,-193,-163,-133,-122,-108,-72,-14,69,170,284,389,488,575,652,682,637,523,366,211,88,-3,-65,-100,-101,-92,-84,-69,-59,-62,-81,-97,-90,-80,-78,-88,-100,-109,-123,-128,-127,-129,-130,-132,-129,-121,-113,-109,-97,-84,-79,-88,-100,-114,-119,-115,-111,-111,-111,-105,-94,-86,-85,-87,-84,-80,-84,-88,-93,-93,-92,-96,-94,-91,-81,-80,-91,-100,-96,-83,-65,-58,-62,-63,-59,-59,-61,-67,-73,-79,-94,-107,-73,3,77,95,55,-8,-57,-78,-82,-75,-78,-83,-108,-119,-33,29,-154,-652,-947,-106,1864,3409,3004,925,-1129,-1929,-1681,-1243,-947,-677,-455,-328,-216,-137,-96,-76,-51,-31,-22,-27,-27,-18,-11,-13,-18,-18,-11,-3,4,9,27,50,60,62,58,61,69,75,53,3,-49,-97,-129,-159,-183,-175,-153,-138,-141,-143,-132,-109,-89,-81,-78,-65,-46,-38,-49,-77,-81,-63,-47,-46,-59,-66,-63,-45,-33,-40,-48,-39,-32,-35,-67,-109,-118,-62,32,99,102,31,-48,-85,-88,-84,-93,-108,-105,-99,-119,-82,12,-31,-409,-910,-684,896,2937,3594,2127,-252,-1822,-2040,-1614,-1225,-916,-623,-419,-290,-189,-125,-87,-61,-49,-37,-30,-30,-36,-40,-33,-20,-15,-17,-28,-17,14,45,59,61,66,79,92,88,65,22,-40,-100,-142,-156,-150,-138,-127,-110,-94,-83,-85,-86,-82,-80,-81,-72,-62,-57,-67,-75,-70,-61,-62,-70,-77,-81,-83,-87,-89,-79,-72,-77,-86,-95,-98,-107,-134,-141,-82,11,59,26,-50,-101,-114,-127,-135,-131,-118,-98,-118,-134,-56,25,-122,-607,-1001,-332,1598,3361,3248,1251,-993,-2039,-1886,-1414,-1069,-763,-506,-345,-235,-156,-115,-99,-90,-84,-68,-49,-32,-31,-46,-62,-66,-61,-57,-56,-50,-24,-4,17,31,45,53,55,43,14,-25,-81,-128,-157,-167,-165,-153,-137,-113,-85,-55,-32,-28,-31,-37,-40,-38,-40,-47,-52,-47,-40,-38,-32,-33,-38,-52,-65,-70,-68,-71,-70,-66,-63,-70,-79,-96,-101,-56,27,99,104,39,-32,1
person_abn2,-53,-60,-59,-60,-62,-62,-66,-69,-63,-59,-61,-67,-68,-65,-61,-60,-61,-61,-53,-56,-58,-46,-27,-21,-34,-54,-63,-65,-72,-79,-77,-71,-68,-65,-62,-62,-61,-58,-53,-49,-50,-53,-51,-50,-51,-45,-35,-54,-81,-23,214,506,521,88,-489,-732,-523,-173,0,-17,-62,-59,-47,-46,-45,-42,-45,-48,-50,-51,-49,-44,-41,-42,-44,-45,-42,-37,-36,-40,-44,-47,-50,-51,-53,-61,-64,-68,-66,-64,-62,-62,-63,-61,-59,-62,-69,-76,-79,-69,-62,-61,-65,-67,-66,-66,-61,-56,-57,-55,-48,-43,-47,-55,-61,-59,-57,-57,-60,-71,-79,-81,-67,-59,-56,-62,-65,-63,-59,-58,-57,-65,-71,-77,-73,-60,-50,-51,-59,-58,-38,-22,-27,-45,-60,-72,-80,-84,-82,-73,-67,-71,-64,-58,-54,-60,-60,-52,-46,-50,-56,-55,-54,-52,-45,-38,-59,-81,18,315,603,507,-33,-608,-752,-475,-138,-5,-27,-65,-68,-59,-49,-41,-43,-52,-59,-53,-44,-43,-48,-49,-45,-38,-42,-43,-44,-40,-41,-38,-40,-45,-49,-54,-63,-72,-78,-79,-77,-70,-67,-64,-61,-65,-65,-69,-68,-69,-72,-75,-76,-71,-68,-64,-56,-56,-57,-60,-58,-56,-56,-58,-61,-62,-64,-64,-64,-66,-67,-68,-67,-67,-67,-67,-65,-60,-55,-55,-58,-61,-62,-63,-63,-64,-62,-57,-54,-58,-64,-62,-44,-27,-28,-48,-63,-66,-71,-82,-88,-82,-64,-56,-55,-56,-61,-61,-58,-50,-50,-49,-47,-45,-48,-51,-39,-31,-67,-86,22,310,565,447,-82,-609,-715,-414,-92,12,-40,-70,-56,-50,-54,-51,-44,-41,-44,-50,-50,-47,-47,-48,-44,-37,-37,-40,-42,-39,-37,-41,-48,-50,-49,-51,-61,-69,-69,-64,-64,-67,-68,-69,-76,-83,-83,-84,-84,-82,-72,-64,-62,-62,-66,-63,-57,-55,-56,-56,-56,-49,-49,-54,-55,-53,-54,-60,-69,-64,-58,-54,-61,-70,-69,-71,-65,-60,-56,-59,-60,-58,-57,-60,-64,-66,-63,-60,-56,-55,-56,-61,-61,-57,-58,-58,-59,-56,-53,-56,-60,-59,-58,-55,-55,-57,-64,-64,-61,-58,-61,-63,-62,-57,-53,-49,-50,-55,-60,-63,-61,-55,-53,-57,-59,-57,-56,-58,-59,-56,-52,-50,-52,-57,-56,-54,-46,-45,-53,-64,-65,-58,-46,-45,-50,-58,-54,-52,-55,-57,-50,-42,-44,-53,-56,-51,-48,-51,-52,-48,-48,-52,-56,-62,-63,-51,-30,-16,-27,-42,-58,-63,-67,-70,-69,-66,-63,-58,-50,-47,-54,-52,-48,-43,-41,-43,-44,-37,-46,-78,-69,63,327,517,348,-158,-595,-629,-335,-68,-7,-60,-72,-49,-47,-55,-56,-49,-37,-35,-39,-49,-53,-50,-47,-44,-44,-45,-41,-40,-40,-42,-48,-52,-54,-54,-55,-59,-64,-64,-65,-63,-61,-56,-53,-58,-66,-75,-78,-79,-78,-79,-82,-78,-72,-64,-57,-51,-52,-55,-53,-45,-39,-46,-56,-63,-66,-65,-62,-61,-61,-67,-72,-69,-64,-64,-63,-65,-65,-64,-62,-61,-63,-62,-66,-64,-61,-62,-63,-57,-49,-55,-61,-66,-62,-55,-47,-49,-56,-58,-58,-56,-58,-59,-55,-54,-56,-59,-54,-50,-51,-60,-68,-65,-57,-47,-49,-58,-60,-58,-53,-53,-53,-52,-54,-55,-57,-57,-57,-60,-59,-59,-61,-60,-52,-50,-53,-57,-52,-49,-51,-55,-51,-50,-47,-50,-55,-61,-64,-54,-31,-18,-28,-50,-65,-72,-71,-72,-74,-69,-61,-61,-56,-51,-50,-50,-51,-57,-55,-55,-53,-36,-27,-55,-71,47,335,566,412,-123,-624,-696,-402,-97,-2,-43,-68,-58,-56,-58,-53,-44,-40,-45,-47,-44,-42,-49,-57,-58,-50,-42,-41,-44,-44,-42,-44,-44,-47,-46,-49,-58,-69,-76,-78,-76,-67,-60,-62,-64,-67,-71,-78,-81,-76,-70,-64,-60,-59,-63,-62,-60,-57,-59,-57,-57,-57,-54,-49,-48,-54,-62,-63,-58,-55,-58,-62,-66,-69,-72,-74,-71,-67,-64,-61,-59,-58,-63,-66,-63,-60,-58,-57,-58,-58,-60,-62,-64,-61,-56,-52,-49,1
person_abn3,-80,-43,-6,-3,-30,-71,-99,-106,-102,-101,-96,-72,-48,-64,-161,-80,403,792,338,-807,-1604,-1318,-351,371,526,436,332,195,83,34,10,-6,-15,-35,-48,-45,-29,-11,5,19,48,84,105,89,43,2,-29,-58,-89,-119,-147,-173,-191,-193,-176,-154,-147,-135,-112,-83,-58,-57,-70,-88,-93,-94,-91,-80,-77,-82,-85,-78,-68,-62,-66,-56,-27,-12,-33,-81,-109,-109,-98,-104,-120,-108,-48,-41,-168,-120,394,829,346,-895,-1708,-1314,-242,478,563,436,331,213,111,61,16,-6,0,0,-12,-22,-10,15,35,57,88,116,107,74,45,27,-7,-59,-98,-114,-132,-167,-197,-197,-178,-162,-143,-120,-104,-93,-79,-76,-78,-89,-90,-83,-80,-81,-79,-77,-68,-64,-62,-68,-65,-34,11,18,-33,-95,-116,-112,-117,-125,-119,-87,-32,-79,-202,-5,556,733,-44,-1210,-1608,-906,85,533,485,358,246,125,63,45,23,-4,-31,-39,-29,-19,-15,-2,25,50,69,73,61,45,22,-6,-42,-85,-118,-150,-170,-185,-186,-180,-168,-155,-136,-114,-89,-80,-81,-82,-80,-78,-81,-81,-87,-85,-85,-85,-80,-77,-70,-59,-52,-56,-48,-18,4,-17,-75,-122,-127,-108,-96,-96,-100,-72,-38,-119,-167,198,731,578,-495,-1558,-1567,-607,303,568,453,327,205,103,57,24,-7,-19,-33,-40,-41,-33,-17,7,26,53,76,94,95,74,29,-19,-60,-93,-125,-156,-183,-197,-205,-197,-175,-142,-110,-103,-110,-112,-98,-79,-74,-82,-82,-77,-79,-90,-91,-77,-69,-68,-67,-64,-71,-87,-102,-101,-86,-59,-37,-11,-4,-38,-85,-106,-107,-103,-95,-82,-50,-22,-86,-167,79,620,691,-193,-1358,-1662,-873,129,548,478,348,254,147,71,31,-4,-28,-38,-44,-41,-30,-8,18,51,80,108,126,127,102,58,6,-38,-87,-131,-171,-192,-211,-225,-233,-225,-199,-167,-144,-122,-96,-50,13,99,238,387,475,608,844,937,526,-359,-1201,-1490,-1246,-872,-625,-458,-325,-219,-161,-156,-143,-97,-62,-60,-84,-106,-113,-110,-99,-75,-31,31,100,158,196,218,221,201,162,111,60,15,-30,-66,-81,-84,-84,-86,-91,-96,-96,-91,-90,-86,-85,-81,-79,-76,-78,-73,-69,-66,-64,-61,-53,-37,-33,-55,-81,-83,-56,-34,-39,-69,-87,-86,-65,-39,-35,-47,-53,-53,-48,-52,-55,-58,-59,-58,-59,-61,-62,-59,-57,-55,-54,-56,-57,-55,-52,-53,-54,-56,-29,25,-13,-153,-2,685,1130,398,-1137,-2020,-1476,-268,451,477,341,273,163,72,39,23,8,-6,-17,-9,7,17,35,63,95,124,139,141,130,108,75,28,-22,-72,-109,-147,-183,-214,-233,-238,-237,-224,-209,-190,-162,-135,-120,-106,-98,-95,-92,-100,-110,-113,-112,-111,-107,-97,-86,-83,-84,-91,-90,-86,-78,-74,-67,-67,-72,-73,-70,-63,-40,-9,3,-18,-58,-82,-87,-80,-85,-87,-54,-22,-90,-189,55,630,755,-74,-1222,-1558,-842,89,486,433,323,225,106,43,25,8,-10,-27,-37,-37,-21,3,24,41,59,78,86,80,76,66,29,-32,-94,-148,-186,-211,-215,-202,-196,-194,-186,-161,-133,-109,-95,-98,-111,-119,-117,-101,-79,-67,-74,-95,-111,-106,-85,-66,-70,-89,-84,-36,14,0,-74,-136,-130,-79,-55,-85,-126,-114,-71,-122,-196,85,662,724,-188,-1340,-1603,-821,115,491,445,363,272,145,65,25,-11,-26,-27,-28,-31,-26,-3,35,74,97,111,125,130,106,56,-5,-59,-100,-137,-162,-170,-177,-181,-192,-190,-171,-139,-106,-83,-79,-80,-81,-82,-79,-71,-64,-68,-78,-84,-85,-86,-83,-81,-74,-72,-73,-67,-59,-57,-45,-16,9,1,-36,-81,-97,-90,-78,-79,-82,-56,-27,-102,-204,62,667,812,-21,-1200,-1591,-912,19,446,417,309,214,110,51,16,-15,-24,-30,-38,-38,-29,-8,13,41,69,89,101,97,80,48,9,-27,-69,-124,-171,-201,-220,-226,-221,-200,1
person_abn4,-55,-56,-54,-55,-61,-59,-30,-17,-113,-238,-12,652,1106,705,-290,-952,-838,-364,-115,-126,-134,-86,-62,-51,-44,-46,-46,-37,-33,-29,-30,-31,-36,-37,-36,-34,-29,-21,-9,-3,1,2,-1,-11,-19,-25,-38,-71,-120,-167,-194,-204,-200,-186,-162,-136,-108,-87,-74,-70,-64,-59,-50,-44,-44,-46,-47,-48,-50,-49,-46,-44,-45,-48,-50,-48,-50,-52,-51,-53,-53,-51,-51,-59,-67,-69,-57,-36,-17,-17,-32,-57,-74,-78,-69,-61,-55,-55,-55,-57,-56,-59,-57,-55,-53,-50,-51,-58,-45,-21,-52,-188,-177,315,982,1024,193,-776,-1033,-611,-163,-67,-119,-107,-77,-67,-57,-48,-39,-37,-41,-42,-37,-31,-26,-32,-39,-45,-43,-29,-11,2,4,-1,-1,-6,-16,-26,-42,-65,-105,-159,-205,-222,-214,-200,-183,-160,-134,-103,-90,-87,-84,-75,-68,-59,-53,-47,-44,-47,-49,-43,-46,-49,-55,-60,-59,-58,-57,-58,-54,-54,-59,-66,-67,-64,-62,-54,-39,-22,-18,-35,-57,-79,-87,-79,-66,-58,-61,-64,-65,-63,-56,-54,-53,-53,-56,-64,-64,-41,-21,-100,-239,-90,545,1106,854,-122,-920,-923,-446,-134,-127,-145,-98,-72,-66,-57,-50,-45,-41,-41,-41,-39,-38,-31,-22,-22,-23,-28,-26,-17,-2,7,6,-3,-12,-19,-22,-37,-73,-122,-168,-197,-206,-200,-185,-162,-136,-113,-94,-77,-68,-56,-50,-44,-47,-50,-50,-45,-43,-43,-42,-42,-40,-40,-41,-47,-51,-52,-53,-56,-56,-51,-47,-45,-47,-52,-50,-49,-43,-35,-22,-11,13,-1,-153,-213,197,842,917,70,-996,-1302,-752,-70,203,187,119,55,17,3,-5,-9,-19,-26,-30,-28,-26,-22,-13,-1,4,8,8,16,24,34,45,43,36,22,6,-20,-75,-150,-221,-270,-293,-290,-264,-232,-191,-153,-121,-104,-90,-78,-64,-57,-56,-51,-46,-41,-37,-38,-38,-40,-46,-57,-57,-55,-54,-58,-60,-56,-53,-57,-64,-70,-64,-59,-54,-55,-59,-58,-54,-51,-50,-51,-50,-48,-49,-55,-59,-59,-58,-58,-56,-50,-40,-41,-49,-57,-61,-58,-52,-47,-48,-50,-45,-47,-48,-51,-48,-49,-53,-57,-56,-52,-53,-53,-52,-45,-45,-55,-67,-67,-51,-30,-14,-14,-30,-51,-67,-69,-63,-61,-60,-59,-53,-49,-49,-47,-44,-43,-44,-50,-36,-16,-47,-177,-204,225,904,1064,356,-612,-985,-661,-232,-109,-146,-115,-65,-50,-46,-43,-36,-32,-34,-37,-37,-35,-36,-41,-37,-35,-28,-22,-14,-14,-13,-15,-15,-17,-20,-26,-32,-44,-61,-88,-118,-146,-168,-178,-176,-157,-137,-119,-107,-94,-81,-70,-63,-53,-48,-42,-40,-47,-47,-45,-46,-54,-63,-62,-60,-55,-49,-49,-55,-61,-69,-70,-72,-67,-55,-35,-23,-33,-53,-70,-76,-74,-72,-71,-71,-68,-63,-57,-56,-62,-66,-66,-63,-67,-73,-55,-17,-52,-198,-190,322,999,1025,159,-818,-1054,-602,-153,-71,-132,-108,-73,-58,-52,-51,-47,-42,-40,-42,-42,-38,-38,-36,-36,-30,-24,-15,-9,-5,-2,-2,0,-6,-16,-27,-46,-77,-126,-172,-208,-227,-225,-213,-183,-150,-120,-97,-81,-75,-73,-67,-58,-53,-50,-47,-39,-35,-36,-40,-45,-48,-47,-49,-47,-47,-50,-53,-61,-66,-65,-51,-31,-17,-16,-33,-52,-66,-73,-77,-75,-69,-64,-59,-58,-55,-55,-53,-51,-49,-50,-54,-48,-23,-32,-155,-230,131,841,1130,504,-532,-1029,-750,-272,-101,-141,-129,-84,-62,-49,-42,-42,-42,-41,-38,-35,-30,-25,-28,-30,-28,-21,-17,-15,-12,-2,11,16,8,-2,-14,-31,-49,-88,-145,-194,-215,-211,-195,-174,-146,-119,-98,-86,-77,-66,-57,-53,-48,-50,-54,-55,-52,-46,-40,-43,-45,-48,-42,-43,-46,-52,-55,-56,-55,-50,-32,-19,-25,-44,-65,-77,-115,2,83,88,69,79,124,126,57,-48,-127,-161,-196,-238,-246,-218,-203,-222,-233,-197,-127,-88,-99,-95,-31,66,123,133,124,118,95,51,26,55,109,181,1
person_abn5,-110,-78,-60,-58,-65,-68,-56,-43,-41,-56,-65,-55,-35,-31,-40,-48,-49,-55,-62,-58,-56,-57,-66,-66,-52,-51,-52,-55,-56,-60,-53,-35,-31,-47,-65,-72,-49,-35,-42,-54,-58,-56,-54,-54,-51,-47,-43,-48,-47,-42,-41,-36,-40,-51,-55,-53,-40,-37,-51,-62,-60,-60,-65,-57,-47,-35,-28,-37,-59,-67,-66,-58,-57,-61,-59,-23,18,12,-31,-76,-106,-110,-98,-82,-65,-78,-90,-55,-21,-110,-205,161,926,1121,139,-1258,-1726,-976,18,402,298,192,158,94,48,20,-4,-9,-10,-30,-53,-47,-11,11,3,-12,-10,6,9,14,33,56,66,68,75,89,93,74,39,-4,-51,-113,-196,-281,-341,-361,-356,-343,-314,-265,-204,-151,-132,-119,-104,-79,-61,-59,-67,-64,-49,-39,-47,-59,-65,-65,-65,-58,-57,-56,-56,-54,-59,-63,-66,-63,-61,-59,-63,-58,-54,-59,-67,-58,-47,-39,-43,-53,-67,-70,-53,-37,-43,-59,-62,-47,-37,-45,-54,-53,-53,-55,-45,-35,-38,-50,-57,-58,-60,-60,-54,-40,-35,-48,-65,-70,-60,-48,-40,-47,-57,-61,-65,-63,-49,-24,-3,-2,-31,-63,-79,-89,-102,-98,-70,-62,-63,-43,-43,-141,-142,364,1083,990,-235,-1530,-1675,-749,150,390,269,203,165,89,53,30,2,-17,-30,-34,-38,-43,-43,-33,-20,-6,2,6,9,21,46,82,99,88,75,80,81,64,18,-37,-105,-178,-256,-314,-363,-395,-390,-344,-300,-259,-210,-145,-96,-91,-104,-93,-54,-27,-32,-54,-67,-67,-63,-61,-57,-54,-64,-80,-83,-73,-67,-82,-85,-68,-55,-56,-50,-43,-25,6,-40,-211,-120,585,1249,791,-707,-1834,-1539,-382,401,449,264,193,145,90,58,29,9,1,-15,-29,-36,-25,-18,-18,-13,-3,4,11,35,74,88,82,78,94,87,50,0,-44,-104,-188,-279,-360,-405,-403,-355,-296,-249,-210,-163,-118,-96,-90,-91,-86,-80,-62,-36,-28,-39,-59,-67,-51,-43,-46,-52,-45,-40,-45,-48,-54,-59,-64,-73,-74,-63,-47,-33,-24,-36,-68,-74,-52,-34,-40,-52,-49,-31,-32,-57,-74,-60,-37,-32,-43,-51,-50,-54,-65,-63,-56,-62,-70,-61,-45,-42,-62,-67,-52,-35,-36,-51,-63,-65,-66,-61,-55,-51,-57,-54,-47,-45,-50,-54,-59,-65,-63,-66,-70,-69,-57,-46,-42,-45,-52,-50,-53,-55,-44,-37,-54,-78,-90,-79,-53,-8,18,-5,-62,-82,-47,-22,-60,-111,-117,-94,-62,-27,-48,-186,-211,323,1091,1045,-138,-1428,-1605,-745,123,369,253,164,105,36,19,14,-5,-38,-57,-45,-7,6,-11,-34,-21,5,16,23,33,36,39,45,64,85,91,83,75,59,28,-20,-76,-130,-194,-270,-331,-355,-370,-368,-335,-268,-199,-162,-148,-131,-103,-84,-79,-85,-86,-76,-63,-65,-73,-73,-56,-39,-43,-62,-65,-50,-36,-43,-61,-77,-78,-69,-66,-71,-75,-66,-43,-31,-43,-66,-74,-60,-48,-49,-59,-58,-47,-47,-56,-61,-50,-37,-39,-46,-44,-45,-58,-71,-64,-45,-35,-43,-56,-51,-47,-47,-43,-40,-51,-71,-80,-57,-37,-36,-57,-69,-59,-43,-38,-49,-61,-69,-64,-32,3,9,-28,-70,-91,-85,-82,-91,-82,-71,-75,-53,-9,-50,-227,-156,527,1217,847,-550,-1663,-1479,-466,265,348,214,170,124,63,14,-33,-39,-7,7,-18,-45,-33,-6,2,-10,-12,1,14,23,40,60,67,66,75,79,58,23,9,9,-24,-97,-189,-270,-330,-362,-369,-348,-309,-264,-226,-191,-155,-117,-89,-81,-78,-66,-56,-47,-48,-54,-63,-56,-41,-28,-35,-62,-73,-56,-39,-47,-72,-80,-69,-42,-48,-70,-75,-64,-53,-59,-73,-66,-49,-41,-45,-44,-45,-56,-59,-45,-40,-50,-66,-71,-63,-62,-58,-46,-43,-62,-76,-62,-37,-36,-49,-60,-64,-61,-63,-67,-69,-57,-47,-47,-54,-60,-61,-55,-46,-30,-30,-45,-63,-71,-75,-77,-65,-54,-54,-43,-19,0,-12,-50,-87,1
person_abn6,-124,-103,-85,-72,-63,-53,-41,-32,-36,-45,-51,-58,-60,-62,-60,-64,-69,-71,-71,-71,-76,-76,-77,-75,-73,-67,-60,-54,-52,-52,-52,-51,-53,-53,-52,-53,-57,-56,-55,-52,-49,-51,-51,-56,-63,-68,-63,-59,-54,-49,-43,-43,-45,-53,-59,-61,-62,-60,-57,-52,-49,-47,-56,-53,-36,-13,-13,-33,-61,-72,-74,-75,-75,-74,-74,-79,-74,-66,-59,-60,-65,-56,-14,-17,-197,-262,325,1278,1476,404,-1062,-1659,-1173,-434,-54,59,103,70,9,-2,-10,-22,-30,-32,-31,-30,-33,-33,-33,-35,-36,-33,-26,-22,-17,-15,-11,-4,3,8,11,13,8,3,-10,-30,-57,-83,-104,-123,-144,-164,-182,-191,-196,-197,-186,-167,-144,-122,-103,-88,-69,-58,-52,-56,-51,-47,-38,-45,-53,-64,-66,-70,-76,-83,-81,-78,-70,-69,-73,-76,-77,-74,-67,-63,-65,-67,-64,-60,-58,-61,-60,-57,-55,-55,-56,-55,-56,-58,-61,-61,-58,-53,-48,-45,-43,-46,-52,-56,-56,-50,-41,-38,-43,-51,-56,-56,-53,-52,-52,-45,-31,-11,0,-17,-50,-77,-84,-74,-68,-73,-82,-85,-78,-69,-63,-59,-55,-48,-24,-1,-87,-244,20,872,1491,956,-452,-1498,-1443,-745,-210,-10,90,119,62,13,-2,-13,-15,-24,-30,-38,-36,-31,-32,-36,-34,-27,-23,-24,-25,-25,-22,-8,7,21,23,21,16,3,-18,-35,-47,-61,-84,-118,-151,-170,-179,-189,-201,-215,-216,-188,-150,-126,-116,-110,-80,-41,-21,-28,-40,-44,-48,-56,-62,-63,-65,-70,-63,-58,-56,-64,-65,-62,-64,-66,-43,-2,-70,-240,-17,821,1485,1010,-395,-1502,-1497,-786,-194,30,103,93,16,-9,-4,-18,-35,-35,-30,-33,-43,-43,-36,-24,-24,-22,-24,-20,-10,-1,6,6,15,21,22,17,10,-3,-25,-44,-66,-89,-117,-143,-173,-194,-211,-211,-202,-179,-154,-123,-98,-80,-70,-69,-70,-67,-65,-67,-66,-65,-64,-63,-66,-70,-71,-66,-63,-65,-70,-71,-65,-59,-60,-62,-60,-54,-45,-45,-51,-59,-64,-62,-62,-58,-57,-57,-58,-58,-61,-59,-56,-52,-54,-55,-59,-58,-56,-53,-51,-51,-51,-50,-47,-46,-47,-50,-49,-49,-49,-50,-47,-43,-43,-46,-50,-53,-51,-49,-50,-54,-56,-54,-43,-42,-50,-64,-63,-58,-47,-46,-44,-49,-48,-48,-44,-45,-38,-28,-27,-42,-52,-32,-13,-27,-68,-100,-98,-78,-67,-64,-62,-64,-70,-57,-16,-32,-213,-239,393,1332,1456,334,-1096,-1617,-1110,-400,-63,35,82,48,-7,-22,-27,-37,-39,-39,-39,-43,-53,-56,-51,-42,-38,-34,-30,-24,-21,-13,-4,6,7,6,6,8,2,-9,-20,-37,-56,-77,-91,-103,-118,-139,-157,-170,-176,-172,-164,-145,-123,-104,-90,-80,-67,-61,-60,-59,-53,-46,-46,-51,-56,-58,-61,-71,-78,-76,-71,-77,-82,-86,-89,-91,-85,-73,-60,-65,-77,-82,-75,-67,-61,-60,-55,-46,-43,-49,-54,-56,-56,-53,-52,-52,-55,-57,-58,-56,-54,-49,-47,-46,-46,-47,-57,-70,-72,-63,-55,-49,-52,-53,-55,-54,-52,-49,-42,-39,-43,-51,-55,-54,-56,-61,-57,-46,-35,-28,-30,-33,-46,-73,-95,-99,-92,-81,-73,-68,-68,-63,-58,-48,-28,-59,-234,-288,304,1262,1495,458,-1012,-1648,-1197,-457,-63,53,100,72,11,-7,-16,-24,-28,-36,-38,-38,-34,-29,-23,-12,-4,-5,-19,-35,-42,-35,-18,-2,9,20,24,26,22,12,0,-21,-46,-75,-100,-116,-131,-152,-172,-188,-195,-194,-180,-162,-146,-128,-111,-90,-76,-64,-54,-48,-45,-45,-45,-46,-51,-59,-66,-68,-62,-59,-59,-62,-65,-67,-67,-63,-60,-61,-63,-64,-62,-56,-54,-54,-50,-46,-47,-57,-63,-59,-45,-39,-42,-50,-57,-58,-54,-46,-40,-44,-54,-52,-47,-47,-55,-56,-42,-31,-31,-46,-64,-78,-87,-80,-62,-49,-45,-45,-46,-45,-44,-39,-27,-16,-14,-31,-49,-70,-89,-100,-100,-90,-77,-72,-73,-70,-64,-62,1
person_abn7,-57,-50,-61,-73,-76,-77,-82,-85,-83,-75,-59,-46,-42,-47,-57,-58,-60,-59,-56,-56,-58,-58,-62,-67,-70,-64,-54,-54,-60,-69,-66,-46,-31,-33,-53,-77,-88,-94,-96,-93,-84,-70,-61,-53,-50,-50,-45,-40,-42,-51,-62,-68,-67,-63,-52,-38,-42,-70,-68,70,355,566,388,-159,-643,-686,-367,-67,3,-51,-71,-57,-56,-62,-56,-49,-44,-44,-46,-47,-48,-44,-46,-51,-56,-57,-53,-45,-43,-47,-53,-55,-57,-63,-65,-65,-67,-72,-75,-68,-59,-57,-64,-67,-70,-74,-77,-76,-71,-73,-76,-79,-75,-66,-61,-56,-57,-56,-55,-55,-55,-59,-66,-71,-73,-74,-70,-66,-70,-77,-75,-54,-28,-25,-52,-81,-98,-105,-104,-95,-77,-60,-60,-66,-73,-77,-73,-67,-66,-62,-52,-44,-44,-47,-43,-29,-39,-82,-87,73,388,585,353,-227,-692,-701,-376,-75,6,-35,-67,-65,-57,-51,-51,-55,-55,-51,-54,-62,-62,-53,-48,-48,-44,-40,-40,-45,-52,-50,-50,-54,-60,-70,-83,-92,-93,-89,-79,-68,-61,-59,-60,-66,-71,-74,-75,-80,-84,-79,-67,-58,-54,-53,-54,-56,-54,-53,-46,-45,-52,-58,-60,-59,-59,-62,-68,-72,-67,-63,-56,-40,-30,-33,-49,-68,-86,-94,-96,-92,-80,-62,-51,-47,-50,-55,-55,-53,-52,-50,-45,-42,-41,-41,-42,-34,-27,-54,-78,7,267,544,500,23,-535,-723,-480,-137,13,-18,-62,-59,-44,-38,-39,-46,-44,-39,-41,-48,-54,-54,-49,-45,-46,-47,-44,-38,-37,-42,-50,-52,-56,-66,-71,-73,-72,-72,-64,-57,-55,-55,-59,-64,-69,-72,-75,-82,-83,-73,-63,-63,-64,-59,-50,-45,-50,-52,-52,-51,-52,-55,-57,-63,-63,-56,-54,-64,-77,-79,-68,-62,-63,-59,-28,-1,-23,-47,-20,56,177,284,230,-92,-554,-821,-686,-276,84,225,215,138,62,19,-8,-25,-28,-27,-28,-33,-38,-37,-34,-35,-37,-37,-30,-27,-23,-28,-28,-31,-32,-38,-45,-51,-59,-74,-95,-119,-140,-151,-154,-148,-134,-125,-118,-112,-98,-84,-75,-70,-60,-45,-38,-39,-47,-56,-57,-54,-50,-56,-68,-72,-71,-77,-80,-82,-79,-76,-74,-75,-71,-65,-69,-73,-68,-63,-61,-63,-65,-59,-57,-62,-69,-74,-68,-62,-64,-62,-59,-59,-65,-72,-69,-68,-64,-61,-63,-64,-68,-69,-63,-44,-26,-26,-48,-68,-76,-84,-87,-84,-74,-70,-76,-77,-71,-63,-59,-59,-62,-63,-66,-60,-58,-61,-51,-39,-58,-86,-34,197,498,535,118,-470,-743,-550,-194,-10,-29,-73,-67,-56,-55,-53,-52,-53,-52,-52,-54,-54,-55,-56,-58,-56,-51,-46,-51,-57,-61,-60,-59,-60,-66,-70,-66,-60,-58,-61,-57,-48,-42,-43,-54,-67,-70,-76,-77,-76,-75,-74,-70,-67,-66,-64,-57,-50,-42,-50,-59,-64,-59,-54,-59,-66,-74,-80,-80,-73,-69,-69,-67,-54,-43,-41,-55,-70,-79,-84,-86,-82,-74,-61,-59,-58,-62,-63,-59,-58,-56,-56,-61,-62,-61,-60,-50,-36,-49,-79,-39,180,484,543,155,-430,-728,-561,-206,-1,-2,-61,-65,-48,-42,-44,-49,-53,-54,-53,-52,-48,-42,-36,-38,-41,-43,-45,-43,-43,-45,-40,-47,-55,-64,-69,-73,-73,-75,-73,-65,-59,-63,-73,-87,-90,-75,-70,-71,-71,-68,-65,-60,-57,-60,-59,-56,-54,-56,-56,-54,-51,-52,-58,-66,-68,-63,-57,-59,-64,-69,-59,-40,-26,-38,-64,-86,-98,-97,-90,-78,-72,-68,-67,-65,-59,-46,-39,-44,-58,-68,-65,-58,-54,-55,-46,-46,-75,-84,35,314,548,418,-98,-601,-689,-397,-83,17,-31,-65,-58,-54,-60,-57,-47,-42,-46,-49,-44,-32,-35,-47,-51,-48,-42,-40,-45,-43,-42,-43,-51,-57,-62,-65,-68,-69,-67,-68,-66,-66,-71,-70,-70,-70,-75,-77,-83,-77,-61,-57,-65,-73,-72,-63,-55,-51,-52,-55,-62,-65,-64,-63,-64,-66,-64,-62,-56,-42,-25,-24,-41,-65,-85,-97,-103,-103,-86,-66,-56,1
person_abn8,-185,-204,-199,-173,-139,-114,-101,-89,-71,-61,-51,-54,-54,-52,-50,-50,-61,-69,-76,-73,-67,-68,-73,-73,-71,-64,-64,-68,-73,-68,-60,-59,-63,-66,-63,-53,-50,-52,-54,-59,-59,-58,-55,-56,-58,-56,-54,-54,-54,-54,-58,-62,-61,-53,-43,-45,-52,-55,-51,-41,-26,-2,28,45,26,-26,-92,-133,-145,-143,-129,-117,-108,-89,-74,-66,-58,-83,-74,111,337,213,-383,-1078,-1300,-850,-72,521,719,590,339,164,94,48,11,-13,-37,-48,-54,-54,-53,-52,-51,-49,-43,-42,-36,-31,-26,-19,-11,-2,7,3,-4,-4,2,-6,-17,-36,-59,-92,-121,-155,-186,-206,-210,-194,-168,-141,-118,-100,-81,-60,-40,-40,-51,-57,-55,-50,-52,-59,-63,-66,-70,-74,-80,-83,-76,-71,-71,-75,-82,-99,-122,-134,-123,-99,-71,-65,-81,-85,-50,11,23,-38,9,259,406,55,-742,-1391,-1309,-528,354,802,761,480,237,132,78,27,-10,-31,-38,-39,-44,-53,-56,-54,-51,-51,-55,-53,-33,-23,-23,-24,-17,-6,0,1,-3,-6,-13,-28,-49,-82,-132,-177,-208,-217,-210,-192,-166,-138,-110,-86,-75,-71,-64,-51,-44,-45,-51,-51,-60,-66,-74,-70,-65,-63,-69,-70,-70,-69,-71,-69,-72,-74,-70,-60,-59,-54,-48,-46,-50,-59,-66,-57,-48,-45,-49,-56,-60,-59,-56,-57,-55,-56,-57,-63,-58,-53,-54,-56,-58,-59,-63,-64,-58,-58,-62,-70,-71,-63,-53,-51,-57,-61,-57,-55,-58,-63,-59,-50,-54,-58,-52,-45,-50,-62,-59,-47,-46,-55,-64,-66,-56,-54,-53,-57,-62,-63,-58,-60,-61,-65,-65,-57,-37,-32,-35,-27,0,19,14,-18,-53,-92,-128,-160,-154,-126,-90,-64,-54,-53,-74,-105,8,267,322,-120,-848,-1290,-1069,-366,320,658,647,430,218,112,62,15,-14,-27,-37,-45,-50,-51,-47,-46,-45,-42,-36,-31,-25,-21,-18,-13,-8,-2,8,18,18,11,0,-12,-18,-27,-43,-75,-115,-158,-188,-199,-202,-190,-166,-138,-117,-96,-77,-67,-62,-63,-60,-54,-52,-52,-56,-60,-67,-73,-77,-77,-74,-74,-79,-82,-87,-83,-76,-68,-67,-70,-72,-69,-67,-61,-60,-61,-61,-61,-59,-61,-64,-68,-63,-54,-57,-59,-60,-60,-60,-58,-51,-50,-63,-72,-65,-55,-57,-60,-59,-54,-55,-62,-62,-54,-53,-61,-66,-65,-53,-41,-26,-1,36,58,31,-41,-115,-147,-146,-139,-136,-127,-109,-86,-67,-49,-49,-84,-30,207,354,36,-689,-1293,-1247,-576,220,676,721,511,273,142,87,32,3,-14,-26,-37,-38,-44,-44,-42,-40,-41,-40,-40,-35,-25,-15,-8,-6,-1,5,9,12,10,-5,-19,-31,-41,-60,-105,-152,-186,-202,-209,-208,-195,-173,-144,-112,-83,-68,-63,-57,-53,-55,-54,-51,-50,-55,-62,-66,-67,-70,-75,-86,-88,-83,-72,-68,-69,-71,-72,-67,-61,-57,-60,-64,-61,-56,-54,-56,-61,-59,-57,-55,-59,-62,-59,-57,-55,-58,-58,-56,-57,-60,-61,-62,-60,-63,-66,-62,-53,-48,-54,-58,-57,-54,-62,-66,-59,-53,-52,-55,-56,-55,-49,-33,-6,34,56,43,-17,-100,-153,-165,-147,-131,-122,-115,-104,-85,-66,-54,-80,-94,76,326,250,-343,-1097,-1389,-944,-116,546,769,644,379,183,108,62,19,-8,-33,-48,-48,-46,-44,-48,-45,-42,-39,-43,-39,-31,-22,-15,-13,-6,1,6,6,3,-1,1,-9,-29,-60,-92,-120,-153,-190,-216,-216,-203,-186,-161,-129,-97,-77,-75,-68,-56,-47,-53,-58,-58,-56,-57,-58,-56,-57,-65,-70,-72,-77,-82,-84,-81,-80,-72,-59,-52,-58,-69,-72,-62,-52,-51,-55,-59,-62,-55,-50,-56,-68,-65,-51,-42,-48,-61,-69,-62,-55,-52,-53,-55,-58,-56,-53,-52,-54,-56,-52,-43,-40,-47,-55,-57,-58,-55,-52,-50,-40,-19,23,57,49,-10,-80,-133,-149,-139,-127,-120,-112,-98,-78,-58,-44,-66,-79,58,302,287,-209,-919,-1274,-962,-239,400,1
person_abn9,-32,-40,-36,-38,-48,-69,-83,-106,-262,-458,-327,287,982,1170,701,11,-407,-497,-464,-416,-384,-362,-310,-247,-207,-194,-188,-186,-172,-146,-114,-83,-66,-49,-28,-13,-6,-3,-3,-3,-3,19,49,82,94,72,35,12,9,24,30,11,-53,-139,-204,-208,-172,-148,-138,-128,-113,-103,-102,-95,-80,-63,-49,-41,-22,-29,-45,-58,-63,-87,-224,-438,-412,98,831,1196,915,263,-261,-462,-476,-437,-390,-355,-301,-237,-192,-183,-184,-184,-176,-171,-157,-130,-98,-67,-42,-26,-18,-15,-14,-15,-1,27,62,80,77,60,38,21,15,28,42,34,-19,-101,-164,-178,-156,-131,-119,-118,-112,-97,-80,-65,-59,-58,-50,-34,-23,-25,-31,-32,-29,-14,3,9,3,-15,-41,-70,-112,-137,-196,-379,-523,-283,376,990,1043,519,-137,-520,-604,-540,-427,-327,-260,-202,-156,-127,-114,-111,-115,-119,-114,-99,-73,-53,-38,-27,-22,-28,-55,-73,-62,-21,35,58,23,-50,-99,-102,-84,-82,-95,-97,-87,-83,-82,-79,-70,-64,-47,-17,6,14,6,3,13,27,30,30,25,20,8,-13,-15,12,60,78,29,-64,-151,-183,-161,-130,-117,-116,-119,-110,-91,-74,-72,-87,-99,-119,-289,-594,-644,-103,762,1283,1075,400,-198,-458,-484,-412,-313,-234,-165,-104,-101,-150,-227,-291,-301,-261,-211,-183,-182,-169,-133,-87,-54,-37,-38,-38,-29,-5,24,49,68,81,84,82,71,51,26,-2,-29,-58,-84,-87,-62,-22,4,-10,-66,-133,-164,-156,-125,-113,-118,-117,-105,-87,-79,-73,-73,-75,-64,-58,-63,-90,-142,-216,-358,-473,-251,405,1100,1274,807,90,-409,-564,-530,-434,-352,-322,-293,-227,-170,-146,-154,-170,-168,-150,-121,-97,-85,-77,-61,-28,0,10,9,12,30,53,74,83,82,68,43,11,-13,-24,-17,0,-6,-54,-138,-199,-201,-171,-151,-159,-157,-139,-114,-93,-75,-61,-54,-47,-37,-32,-35,-37,-36,-31,-20,-12,-8,-3,-2,-24,-43,-38,8,59,59,-2,-91,-157,-173,-150,-122,-127,-138,-132,-114,-108,-121,-143,-181,-310,-496,-424,140,914,1300,990,278,-319,-565,-563,-450,-305,-213,-173,-142,-98,-53,-35,-68,-141,-219,-257,-249,-224,-205,-200,-186,-151,-113,-80,-57,-47,-44,-26,10,50,71,67,42,23,15,11,2,-16,-41,-63,-89,-100,-86,-51,-22,-28,-83,-155,-194,-179,-138,-110,-106,-107,-99,-95,-97,-88,-67,-61,-59,-71,-106,-180,-351,-526,-357,284,1027,1278,850,113,-413,-573,-512,-360,-215,-154,-169,-212,-257,-256,-223,-198,-199,-215,-218,-204,-174,-138,-101,-70,-47,-17,1,15,36,68,102,124,126,118,111,99,69,26,-11,-33,-22,3,21,7,-53,-135,-187,-182,-148,-126,-119,-113,-96,-82,-74,-72,-69,-55,-39,-31,-36,-65,-110,-193,-394,-537,-254,502,1228,1310,697,-96,-531,-562,-438,-324,-287,-311,-312,-272,-221,-194,-199,-218,-218,-197,-165,-133,-105,-81,-62,-36,-15,-2,7,15,37,72,100,114,116,109,84,48,21,18,43,61,40,-29,-122,-187,-186,-149,-118,-119,-125,-111,-90,-71,-58,-43,-33,-29,-23,-26,-29,-41,-66,-112,-281,-536,-498,111,967,1372,1002,220,-365,-533,-484,-409,-366,-368,-348,-285,-234,-221,-224,-223,-202,-180,-164,-140,-122,-103,-81,-53,-27,-21,-19,-7,19,55,84,106,111,99,71,30,8,13,32,37,-2,-80,-159,-190,-177,-152,-142,-146,-143,-133,-111,-86,-60,-47,-46,-36,-24,-28,-46,-72,-98,-153,-336,-503,-264,468,1198,1303,707,-73,-508,-565,-488,-418,-381,-363,-308,-239,-206,-203,-207,-201,-184,-164,-148,-133,-116,-91,-60,-27,-6,3,0,6,30,60,85,101,101,85,48,9,-1,17,36,33,-4,-78,-148,-174,-155,-130,-119,-123,-119,-111,-97,-77,-64,-59,-52,-30,-15,-21,-44,-87,-124,-212,-364,-333,131,821,1205,940,269,-315,-544,-538,-457,-375,-344,-331,-282,-229,-200,-197,1
person_abn10,-69,-75,-78,-69,-44,-17,-68,-190,-77,489,1015,780,-170,-945,-920,-399,-50,-50,-104,-70,-41,-27,-24,-36,-46,-46,-33,-23,-21,-25,-23,-10,0,1,1,10,20,17,-2,-19,-33,-46,-78,-118,-156,-187,-212,-219,-213,-186,-152,-123,-95,-73,-63,-58,-56,-55,-50,-41,-36,-48,-52,-55,-53,-55,-58,-60,-55,-49,-51,-55,-62,-72,-81,-86,-67,-23,12,8,-32,-71,-87,-77,-60,-54,-52,-54,-60,-60,-61,-54,-46,-44,-43,-23,-8,-54,-167,-117,356,932,876,45,-821,-965,-498,-86,-35,-110,-92,-57,-54,-49,-45,-45,-43,-34,-18,-13,-16,-10,4,10,-4,-18,-8,9,23,15,-7,-26,-42,-63,-103,-145,-176,-198,-209,-206,-180,-150,-136,-124,-100,-77,-66,-61,-55,-51,-54,-60,-54,-47,-46,-48,-47,-49,-56,-62,-62,-56,-58,-56,-49,-46,-63,-91,-91,-61,-27,-6,-1,-15,-52,-79,-85,-70,-55,-57,-62,-54,-50,-54,-64,-59,-59,-67,-52,-25,-45,-145,-145,258,842,893,133,-783,-1017,-568,-82,24,-66,-76,-41,-33,-35,-40,-44,-40,-36,-26,-22,-24,-19,-14,-2,4,11,10,6,9,13,2,-20,-37,-51,-73,-111,-161,-201,-218,-216,-198,-175,-145,-123,-97,-77,-65,-52,-46,-53,-61,-57,-40,-33,-45,-54,-53,-44,-43,-53,-61,-67,-60,-48,-46,-57,-78,-84,-70,-39,-17,-14,-32,-61,-79,-84,-75,-65,-58,-57,-61,-63,-64,-60,-52,-46,-49,-43,-23,-46,-140,-144,237,819,909,200,-711,-994,-587,-124,-21,-113,-132,-99,-80,-63,-45,-34,-34,-40,-40,-30,-26,-25,-17,-9,1,7,9,12,10,3,-13,-23,-31,-46,-82,-126,-172,-200,-219,-218,-201,-170,-145,-123,-100,-75,-61,-57,-54,-49,-47,-51,-60,-62,-54,-54,-55,-60,-58,-34,-47,-66,129,495,549,-69,-1003,-1431,-971,-109,443,527,396,247,151,91,32,-7,-36,-52,-48,-36,-23,-11,-1,5,10,21,37,52,52,37,26,14,-13,-72,-148,-231,-289,-318,-322,-307,-270,-227,-181,-143,-118,-96,-78,-66,-60,-54,-50,-47,-46,-50,-52,-57,-61,-59,-55,-51,-57,-63,-70,-69,-61,-57,-54,-57,-61,-60,-56,-45,-41,-45,-56,-58,-46,-42,-46,-49,-49,-46,-50,-46,-38,-34,-45,-55,-50,-38,-33,-36,-48,-48,-41,-46,-52,-55,-52,-54,-61,-64,-56,-43,-43,-62,-85,-83,-57,-22,-2,-3,-23,-51,-69,-77,-71,-62,-56,-54,-48,-50,-52,-57,-64,-50,-20,-23,-110,-166,109,689,958,433,-494,-966,-707,-220,-29,-93,-111,-61,-48,-53,-45,-36,-32,-33,-33,-23,-14,-17,-21,-17,-14,-11,-6,-3,-8,-11,-11,-10,-16,-34,-47,-52,-64,-85,-107,-122,-124,-128,-131,-134,-121,-94,-69,-52,-47,-48,-45,-42,-42,-47,-49,-37,-24,-24,-39,-59,-69,-66,-71,-86,-101,-104,-98,-89,-69,-37,-2,22,7,-37,-67,-76,-62,-55,-58,-66,-74,-72,-63,-54,-50,-55,-65,-62,-30,-29,-118,-144,204,787,903,211,-704,-996,-579,-80,44,-49,-80,-50,-37,-30,-30,-28,-21,-21,-26,-30,-29,-22,-16,-6,7,12,6,6,5,-4,-23,-48,-63,-79,-101,-137,-166,-175,-179,-183,-175,-160,-134,-110,-92,-72,-52,-46,-54,-60,-51,-41,-39,-53,-59,-56,-56,-59,-75,-83,-81,-82,-78,-68,-47,-29,-31,-49,-80,-102,-98,-85,-71,-66,-65,-60,-58,-59,-61,-63,-64,-56,-24,-14,-107,-209,33,651,986,477,-498,-1017,-743,-208,14,-46,-91,-76,-75,-66,-51,-43,-39,-44,-45,-42,-38,-31,-21,-15,-9,-6,-1,7,9,1,-13,-32,-50,-64,-85,-118,-164,-203,-227,-227,-208,-177,-149,-128,-108,-94,-90,-82,-67,-53,-48,-56,-68,-72,-72,-70,-69,-66,-76,-88,-96,-100,-84,-53,-20,-17,-53,-95,-110,-97,-85,-90,-100,-103,-98,-79,-60,-50,-47,-54,-50,-20,3,-81,-184,43,640,980,506,-458,-995,-736,-198,33,-27,1
person_abn11,-50,-49,-49,-51,-55,-56,-60,-64,-64,-59,-52,-44,-43,-50,-57,-53,-26,15,45,36,2,-38,-59,-70,-86,-105,-113,-108,-59,-49,-170,-45,681,1389,994,-505,-1761,-1659,-614,170,262,121,67,48,36,25,8,-5,-10,-11,-8,-6,-1,7,8,11,26,46,64,80,91,113,139,151,146,126,97,60,17,-44,-121,-209,-288,-342,-367,-376,-361,-329,-286,-237,-186,-139,-96,-68,-55,-49,-47,-50,-56,-56,-58,-76,-96,-102,-97,-90,-83,-80,-85,-86,-81,-60,-43,-44,-49,-45,-34,-32,-37,-48,-56,-58,-60,-56,-44,-34,-35,-47,-54,-48,-36,-28,-31,-38,-47,-53,-53,-40,-20,7,23,5,-38,-74,-82,-75,-90,-115,-138,-113,-52,-103,-202,170,1009,1352,414,-1152,-1872,-1220,-157,301,204,91,72,55,23,-6,-14,-7,-11,-14,-11,-1,14,17,8,13,37,66,88,91,93,115,143,144,118,89,69,53,12,-62,-150,-230,-303,-358,-384,-373,-336,-294,-253,-210,-153,-109,-84,-73,-62,-51,-58,-80,-87,-84,-83,-90,-92,-99,-111,-105,-82,-61,-58,-64,-63,-55,-54,-59,-59,-54,-43,-32,-29,-48,-66,-50,-19,-14,-32,-48,-47,-43,-56,-60,-40,-21,-30,-48,-56,-31,-17,-35,-62,-49,4,47,51,7,-58,-99,-94,-80,-85,-114,-125,-82,-93,-206,39,877,1499,866,-754,-1880,-1556,-464,197,187,51,22,24,24,11,-10,-25,-21,-3,-4,-30,-24,9,36,33,29,35,59,83,112,135,141,133,133,134,114,65,-2,-73,-149,-231,-308,-372,-414,-418,-384,-328,-266,-218,-178,-138,-99,-84,-74,-38,-9,-22,-58,-85,-69,-19,50,154,255,280,265,460,1085,1738,1550,231,-1401,-2237,-2038,-1395,-871,-521,-231,-68,-40,-32,-12,-5,-3,10,29,29,7,-12,-9,-12,-42,-61,-38,11,50,68,88,115,142,172,180,158,108,33,-58,-132,-168,-166,-156,-167,-172,-138,-88,-70,-73,-67,-56,-49,-45,-44,-55,-69,-73,-71,-62,-59,-72,-76,-55,-44,-59,-75,-67,-39,-26,-52,-83,-84,-68,-52,-45,-58,-79,-79,-64,-45,-22,-21,-52,-84,-84,-57,-38,-45,-55,-52,-35,-29,-38,-56,-68,-69,-60,-55,-54,-48,-48,-60,-62,-49,-43,-46,-56,-72,-73,-52,-33,-39,-61,-72,-73,-70,-73,-73,-58,-37,-39,-57,-66,-62,-41,-32,-51,-73,-83,-65,-18,17,8,-15,-23,-37,-82,-125,-146,-148,-110,-52,-122,-139,403,1287,1398,180,-1373,-1822,-1019,-93,156,32,-22,-15,-8,-13,-37,-49,-31,-4,5,-15,-30,-18,22,34,15,-6,18,80,118,103,93,125,164,167,145,131,119,81,18,-47,-110,-193,-282,-341,-366,-371,-362,-342,-297,-237,-189,-170,-167,-157,-135,-120,-124,-132,-129,-114,-102,-92,-93,-103,-113,-98,-70,-57,-71,-90,-89,-61,-37,-37,-59,-78,-88,-66,-30,-38,-78,-101,-84,-41,-28,-48,-57,-51,-52,-48,-30,-17,-17,-29,-29,-1,36,19,-47,-122,-159,-147,-125,-107,-72,-85,-176,-10,662,1237,770,-632,-1706,-1499,-464,271,325,154,87,76,46,12,-5,-5,-9,-11,1,12,0,-5,12,35,36,36,57,81,97,110,129,137,127,102,82,50,5,-47,-108,-193,-268,-318,-335,-333,-321,-301,-256,-192,-148,-137,-130,-99,-50,-30,-66,-114,-121,-74,-36,-50,-88,-110,-93,-65,-50,-47,-45,-46,-62,-74,-67,-57,-48,-43,-45,-51,-47,-41,-38,-48,-53,-31,-10,-32,-63,-68,-52,-38,-40,-47,-40,-21,-6,11,14,11,3,-36,-103,-146,-132,-95,-56,-73,-193,-105,571,1343,1132,-258,-1622,-1718,-746,114,265,95,16,9,10,6,-3,-6,-3,-10,-17,-9,-9,-12,2,35,47,39,39,67,103,130,153,158,144,123,105,90,55,-16,-102,-198,-287,-369,-414,-409,-357,-299,-270,-245,-192,-135,-88,-63,-58,-53,-64,-90,-104,-91,-72,-73,-77,-82,-91,-91,-80,-61,-59,-76,-82,1
person_abn12,-48,-40,-27,4,41,72,94,108,109,98,74,57,34,16,-8,-36,-64,-69,-44,-9,-7,-59,-139,-186,-178,-143,-129,-137,-140,-127,-102,-77,-62,-63,-65,-50,-40,-40,-64,-107,-167,-332,-560,-488,140,983,1362,980,203,-364,-524,-469,-382,-328,-334,-331,-282,-227,-213,-222,-231,-214,-187,-168,-146,-124,-111,-94,-63,-28,-3,15,34,65,96,121,132,120,95,64,33,5,-9,7,31,19,-54,-150,-215,-218,-188,-166,-163,-160,-146,-133,-112,-83,-52,-36,-38,-37,-21,-18,-29,-47,-62,-84,-206,-439,-483,-26,758,1244,1042,373,-237,-517,-574,-539,-452,-367,-293,-226,-202,-210,-219,-204,-176,-168,-172,-158,-120,-80,-61,-54,-34,-7,22,48,71,99,114,101,68,37,30,39,56,60,46,4,-84,-163,-190,-175,-150,-149,-169,-171,-142,-104,-80,-88,-87,-61,-17,2,-40,-73,-54,-20,-25,-42,-59,-190,-412,-406,92,832,1207,928,288,-263,-554,-623,-547,-406,-291,-238,-222,-215,-205,-204,-203,-178,-145,-125,-108,-83,-54,-44,-48,-35,-3,13,27,56,80,76,56,48,63,73,80,73,31,-56,-124,-128,-100,-99,-134,-163,-166,-151,-115,-72,-44,-43,-47,-33,-16,-10,-19,-26,-25,-21,-19,-34,-50,-111,-339,-600,-451,273,1094,1296,727,-93,-575,-637,-522,-403,-337,-315,-275,-225,-180,-154,-141,-140,-141,-134,-113,-93,-75,-64,-47,-19,-3,4,2,13,30,43,48,63,97,120,101,31,-60,-123,-134,-110,-104,-117,-134,-130,-116,-99,-78,-59,-51,-44,-29,-13,-3,4,2,6,6,-7,-26,-55,-75,-193,-495,-661,-239,671,1345,1183,376,-378,-668,-642,-555,-464,-376,-294,-218,-175,-158,-149,-138,-130,-118,-101,-85,-70,-55,-31,-5,8,7,-2,-4,3,16,49,104,150,146,82,-13,-78,-106,-107,-110,-128,-148,-146,-129,-106,-89,-76,-70,-55,-39,-28,-21,-12,-3,2,7,3,-3,-7,-27,-53,-79,-75,-57,-203,-532,-632,-119,749,1228,899,99,-522,-698,-606,-453,-321,-244,-196,-162,-137,-115,-89,-76,-81,-83,-67,-51,-43,-43,-39,-38,-46,-59,-49,-7,44,65,49,2,-35,-47,-45,-49,-69,-93,-107,-109,-98,-84,-79,-79,-69,-43,-20,-15,-15,-12,5,13,10,-1,-17,-32,-44,-50,-31,11,34,8,-69,-140,-165,-146,-124,-120,-137,-149,-152,-140,-124,-99,-77,-63,-54,-53,-45,-28,-16,-11,-8,-3,-2,-11,-24,-46,-84,-132,-208,-351,-417,-127,501,1027,996,438,-223,-603,-676,-595,-461,-349,-278,-211,-155,-120,-100,-79,-67,-58,-58,-56,-47,-32,-18,-12,-12,-14,-17,-37,-57,-45,7,66,84,43,-31,-86,-99,-91,-91,-104,-112,-119,-130,-134,-117,-94,-78,-62,-48,-37,-24,-6,14,28,24,9,6,8,-8,-38,-57,-30,35,68,16,-88,-170,-185,-151,-120,-121,-138,-143,-123,-95,-77,-67,-62,-58,-47,-46,-51,-110,-364,-640,-469,300,1140,1355,805,17,-459,-543,-437,-276,-169,-161,-204,-258,-285,-270,-232,-210,-212,-217,-201,-172,-142,-107,-72,-42,-15,-1,5,10,27,60,92,114,115,108,89,59,22,-17,-41,-42,-28,-6,0,-33,-107,-169,-186,-160,-140,-136,-137,-124,-99,-78,-66,-62,-55,-41,-26,-22,-28,-37,-51,-81,-154,-375,-617,-454,303,1176,1457,958,154,-407,-615,-655,-599,-479,-367,-288,-255,-250,-237,-196,-158,-141,-146,-143,-124,-86,-55,-29,-6,12,26,43,56,72,84,100,108,88,58,49,78,100,72,-22,-132,-199,-206,-187,-173,-177,-170,-147,-117,-93,-72,-61,-49,-35,-15,-10,-12,-15,-14,-14,-17,-11,-83,-437,-885,-789,130,1250,1636,1061,137,-461,-643,-617,-497,-368,-314,-301,-282,-245,-193,-153,-134,-126,-124,-109,-94,-73,-50,-20,5,23,22,8,6,31,57,68,65,71,103,135,108,21,-95,-176,-199,-182,-163,-157,-161,-154,-134,-106,-82,-59,-39,-30,-21,-10,2,4,1
person_abn13,-80,-68,-55,-64,-90,-103,-95,-71,-54,-48,-47,-43,-39,-32,-10,8,6,-15,-44,-60,-63,-58,-46,-45,-43,-42,-42,-39,-38,-35,-31,-33,-42,-44,-16,-6,-78,-161,55,651,1039,623,-344,-981,-824,-303,-23,-52,-98,-68,-44,-40,-37,-42,-40,-36,-32,-32,-34,-33,-32,-31,-26,-22,-19,-17,-12,-6,3,3,1,-6,-10,-16,-30,-61,-103,-151,-191,-205,-197,-179,-159,-137,-116,-92,-75,-66,-62,-60,-60,-57,-60,-61,-50,-32,-28,-41,-50,-50,-52,-53,-60,-56,-53,-52,-53,-63,-73,-76,-65,-46,-33,-18,-13,-21,-44,-73,-88,-82,-72,-60,-52,-45,-38,-36,-38,-37,-33,-39,-46,-26,29,101,132,46,-59,130,685,1055,658,-290,-933,-803,-293,-3,-31,-85,-52,-17,-8,-11,-14,-11,-19,-32,-49,-56,-55,-53,-50,-45,-42,-41,-46,-47,-40,-33,-31,-30,-30,-31,-42,-60,-85,-119,-163,-203,-222,-215,-195,-174,-154,-130,-118,-115,-108,-95,-80,-76,-78,-76,-73,-73,-76,-73,-64,-55,-56,-62,-73,-86,-93,-85,-70,-64,-71,-80,-86,-77,-59,-37,-32,-49,-69,-75,-78,-69,-44,-17,-68,-190,-77,489,1015,780,-170,-945,-920,-399,-50,-50,-104,-70,-41,-27,-24,-36,-46,-46,-33,-23,-21,-25,-23,-10,0,1,1,10,20,17,-2,-19,-33,-46,-78,-118,-156,-187,-212,-219,-213,-186,-152,-123,-95,-73,-63,-58,-56,-55,-50,-41,-36,-48,-52,-55,-53,-55,-58,-60,-55,-49,-51,-55,-62,-72,-81,-86,-67,-23,12,8,-32,-71,-87,-77,-60,-54,-52,-54,-60,-60,-61,-54,-46,-44,-43,-23,-8,-54,-167,-117,356,932,876,45,-821,-965,-498,-86,-35,-110,-92,-57,-54,-49,-45,-45,-43,-34,-18,-13,-16,-10,4,10,-4,-18,-8,9,23,15,-7,-26,-42,-63,-103,-145,-176,-198,-209,-206,-180,-150,-136,-124,-100,-77,-66,-61,-55,-51,-54,-60,-54,-47,-46,-48,-47,-49,-56,-62,-62,-56,-58,-56,-49,-46,-63,-91,-91,-61,-27,-6,-1,-15,-52,-79,-85,-70,-55,-57,-62,-54,-50,-54,-64,-59,-59,-67,-52,-25,-45,-145,-145,258,842,893,133,-783,-1017,-568,-82,24,-66,-76,-41,-33,-35,-40,-44,-40,-36,-26,-22,-24,-19,-14,-2,4,11,10,6,9,13,2,-20,-37,-51,-73,-111,-161,-201,-218,-216,-198,-175,-145,-123,-97,-77,-65,-52,-46,-53,-61,-57,-40,-33,-45,-54,-53,-44,-43,-53,-61,-67,-60,-48,-46,-57,-78,-84,-70,-39,-17,-14,-32,-61,-79,-84,-75,-65,-58,-57,-61,-63,-64,-60,-52,-46,-49,-43,-23,-46,-140,-144,237,819,909,200,-711,-994,-587,-124,-21,-113,-132,-99,-80,-63,-45,-34,-34,-40,-40,-30,-26,-25,-17,-9,1,7,9,12,10,3,-13,-23,-31,-46,-82,-126,-172,-200,-219,-218,-201,-170,-145,-123,-100,-75,-61,-57,-54,-49,-47,-51,-60,-62,-54,-54,-55,-60,-58,-34,-47,-66,129,495,549,-69,-1003,-1431,-971,-109,443,527,396,247,151,91,32,-7,-36,-52,-48,-36,-23,-11,-1,5,10,21,37,52,52,37,26,14,-13,-72,-148,-231,-289,-318,-322,-307,-270,-227,-181,-143,-118,-96,-78,-66,-60,-54,-50,-47,-46,-50,-52,-57,-61,-59,-55,-51,-57,-63,-70,-69,-61,-57,-54,-57,-61,-60,-56,-45,-41,-45,-56,-58,-46,-42,-46,-49,-49,-46,-50,-46,-38,-34,-45,-55,-50,-38,-33,-36,-48,-48,-41,-46,-52,-55,-52,-54,-61,-64,-56,-43,-43,-62,-85,-83,-57,-22,-2,-3,-23,-51,-69,-77,-71,-62,-56,-54,-48,-50,-52,-57,-64,-50,-20,-23,-110,-166,109,689,958,433,-494,-966,-707,-220,-29,-93,-111,-61,-48,-53,-45,-36,-32,-33,-33,-23,-14,-17,-21,-17,-14,-11,-6,-3,-8,-11,-11,-10,-16,-34,-47,-52,-64,-85,-107,-122,-124,-128,-131,-134,-121,-94,-69,-52,-47,-48,-45,-42,-42,-47,-49,-37,-24,-24,-39,1
person_abn14,-11,34,38,4,-38,-54,-57,-59,-62,-56,-51,-57,-62,-72,-73,-67,-57,-56,-68,-65,-36,-21,-157,-340,-15,894,1483,933,-351,-1178,-1023,-472,-222,-244,-211,-138,-113,-98,-87,-85,-72,-58,-49,-41,-40,-40,-43,-44,-37,-19,8,17,13,-3,-21,-40,-71,-100,-126,-152,-182,-215,-240,-249,-243,-235,-219,-189,-163,-143,-130,-113,-101,-98,-102,-101,-97,-84,-75,-76,-85,-99,-103,-100,-95,-103,-107,-115,-128,-123,-75,-8,16,-20,-81,-104,-92,-79,-86,-96,-96,-87,-76,-77,-78,-81,-77,-72,-70,-64,-38,-9,-98,-326,-190,645,1472,1253,14,-1072,-1153,-594,-225,-219,-211,-127,-86,-63,-45,-36,-35,-30,-26,-21,-13,-2,9,17,25,41,62,77,82,74,63,42,15,-12,-43,-82,-121,-156,-181,-187,-172,-137,-102,-79,-56,-34,-13,0,10,17,22,27,32,30,26,29,37,42,42,37,33,19,1,-10,-2,28,73,105,101,61,19,3,14,23,21,11,6,11,22,28,23,17,14,7,12,34,60,2,-205,-206,467,1390,1492,454,-781,-1157,-720,-262,-177,-187,-117,-83,-80,-63,-41,-14,-5,-12,-19,-15,4,18,23,19,21,29,44,50,55,50,27,-9,-48,-77,-100,-134,-178,-217,-235,-227,-203,-183,-169,-157,-134,-104,-86,-89,-95,-96,-84,-81,-84,-92,-90,-84,-81,-80,-78,-84,-99,-119,-133,-128,-90,-39,-8,-19,-60,-97,-110,-106,-100,-96,-93,-93,-88,-79,-74,-77,-82,-83,-85,-87,-71,-38,-75,-264,-303,292,1187,1362,431,-767,-1189,-793,-331,-231,-249,-185,-133,-116,-88,-64,-48,-39,-49,-56,-53,-41,-28,-22,-20,-15,-8,3,14,19,9,-7,-29,-56,-83,-114,-159,-195,-226,-242,-241,-223,-198,-168,-143,-125,-111,-100,-95,-84,-71,-63,-61,-66,-68,-69,-69,-74,-76,-81,-82,-79,-81,-97,-117,-130,-117,-81,-30,2,-6,-52,-98,-110,-96,-89,-87,-88,-49,2,-140,-305,68,861,1064,76,-1284,-1688,-912,38,366,283,191,126,70,37,9,-13,-34,-44,-35,-17,1,9,15,15,23,44,72,89,99,104,98,76,39,-3,-66,-153,-254,-338,-387,-393,-376,-349,-316,-271,-217,-173,-145,-121,-94,-69,-57,-52,-53,-57,-65,-75,-74,-68,-64,-68,-73,-79,-79,-78,-66,-59,-59,-68,-72,-69,-69,-79,-94,-99,-75,-31,4,11,-11,-47,-69,-78,-80,-75,-67,-65,-66,-71,-76,-77,-64,-42,-35,-54,-62,-30,-20,-178,-327,97,1032,1489,766,-541,-1220,-936,-383,-189,-219,-173,-112,-100,-83,-68,-56,-45,-40,-37,-35,-31,-22,-8,4,6,6,18,36,49,49,32,0,-35,-61,-86,-119,-156,-195,-223,-238,-236,-216,-184,-151,-121,-93,-73,-68,-66,-69,-70,-72,-76,-71,-62,-57,-57,-62,-70,-90,-96,-74,-17,26,34,7,-36,-70,-83,-83,-68,-55,-51,-56,-58,-51,-44,-37,-39,-39,-53,-65,-50,-7,-12,-181,-296,189,1135,1524,733,-564,-1196,-889,-364,-196,-216,-154,-92,-66,-41,-23,-17,-17,-18,-16,-11,-6,-4,0,13,36,52,59,64,71,63,36,1,-36,-61,-86,-124,-171,-214,-225,-218,-200,-175,-151,-127,-107,-94,-78,-62,-55,-49,-41,-39,-39,-39,-39,-35,-35,-33,-37,-46,-58,-79,-93,-74,-27,23,30,-7,-49,-70,-69,-64,-55,-53,-54,-56,-49,-42,-40,-43,-41,-36,-40,-41,-18,-1,-106,-297,-82,755,1452,1102,-111,-1052,-1038,-515,-210,-211,-185,-104,-78,-66,-52,-45,-40,-41,-36,-29,-27,-24,-13,5,18,27,28,29,33,34,36,23,-1,-30,-63,-97,-136,-175,-199,-206,-195,-173,-145,-111,-86,-67,-55,-40,-26,-26,-26,-24,-17,-11,1,6,3,3,6,2,-12,-34,-46,-31,8,52,76,69,30,-9,-23,-20,-12,-9,-6,-4,5,12,14,6,0,-2,-9,-11,9,46,24,-154,-262,228,1136,1474,692,-543,-1120,-818,-329,-170,-190,-134,-83,-66,1
person_abn15,-62,-93,-115,-136,-150,-160,-153,-136,-114,-105,-96,-84,-74,-68,-65,-65,-64,-63,-60,-64,-64,-64,-65,-70,-73,-72,-66,-61,-58,-61,-62,-63,-64,-62,-60,-59,-58,-59,-59,-60,-55,-48,-48,-44,-28,-9,0,-11,-39,-72,-96,-110,-104,-91,-83,-83,-75,-64,-59,-65,-44,-16,-128,-228,71,659,836,201,-732,-1134,-799,-256,59,163,163,87,22,2,-13,-30,-38,-41,-39,-40,-49,-55,-49,-44,-37,-33,-26,-26,-24,-19,-7,-2,-6,-16,-13,-15,-25,-41,-59,-77,-104,-137,-153,-148,-138,-136,-131,-113,-90,-77,-73,-71,-63,-61,-61,-62,-66,-71,-69,-66,-64,-63,-63,-68,-66,-66,-64,-60,-57,-62,-64,-61,-57,-59,-62,-68,-65,-57,-44,-33,-35,-46,-46,-26,-1,1,-25,-58,-88,-106,-118,-116,-99,-88,-82,-80,-73,-70,-58,-9,-40,-219,-194,319,867,705,-210,-1052,-1112,-570,-61,148,178,125,46,16,7,-11,-30,-41,-43,-41,-45,-51,-54,-44,-31,-27,-25,-21,-18,-12,-13,-9,-3,-6,-18,-29,-28,-30,-38,-64,-96,-124,-141,-144,-141,-135,-124,-113,-102,-90,-79,-71,-68,-66,-63,-60,-60,-59,-60,-61,-64,-65,-63,-62,-64,-63,-63,-65,-68,-69,-60,-53,-59,-68,-69,-64,-61,-61,-61,-54,-43,-48,-49,-30,-3,9,-12,-51,-79,-98,-108,-116,-106,-96,-90,-79,-71,-71,-74,-40,-14,-143,-247,81,702,869,179,-812,-1205,-806,-193,125,184,142,61,9,-7,-20,-29,-28,-37,-44,-49,-48,-43,-35,-34,-35,-32,-22,-9,-5,-5,-9,-7,-9,-14,-21,-23,-25,-42,-63,-84,-110,-138,-161,-168,-156,-137,-122,-106,-93,-86,-76,-64,-62,-62,-62,-58,-58,-61,-64,-60,-57,-60,-65,-66,-53,-30,0,41,111,199,246,219,104,-76,-237,-319,-373,-444,-462,-323,-89,79,90,29,13,15,-11,-55,-84,-104,-102,-90,-76,-68,-54,-40,-31,-34,-41,-40,-28,-17,-13,-13,-11,-16,-23,-35,-46,-60,-76,-87,-93,-96,-104,-109,-106,-99,-86,-75,-66,-61,-59,-63,-63,-60,-60,-60,-59,-53,-50,-55,-57,-56,-55,-52,-49,-50,-48,-49,-55,-60,-63,-63,-57,-50,-55,-62,-60,-52,-45,-48,-55,-54,-51,-50,-53,-58,-62,-63,-57,-46,-44,-49,-56,-50,-51,-52,-53,-53,-57,-58,-50,-39,-39,-53,-64,-61,-56,-52,-52,-49,-50,-52,-55,-48,-24,0,3,-19,-50,-81,-95,-101,-94,-90,-83,-76,-71,-68,-63,-29,-29,-165,-198,228,819,826,29,-890,-1151,-736,-222,38,126,128,63,17,-1,-20,-34,-36,-37,-48,-54,-52,-43,-46,-49,-47,-35,-32,-32,-32,-23,-16,-12,-17,-16,-11,-3,-4,-14,-27,-48,-74,-100,-120,-133,-138,-134,-122,-107,-101,-93,-83,-73,-63,-60,-58,-61,-63,-62,-62,-60,-55,-56,-61,-71,-67,-61,-59,-59,-64,-65,-61,-61,-61,-61,-56,-56,-54,-52,-47,-44,-37,-27,-3,23,32,0,-58,-112,-136,-134,-118,-101,-87,-79,-74,-73,-71,-64,-19,-31,-191,-211,247,833,788,-56,-958,-1140,-647,-111,120,158,118,50,15,6,-12,-25,-29,-38,-47,-53,-51,-43,-38,-39,-30,-14,-5,-12,-25,-21,-2,6,-5,-17,-21,-25,-36,-50,-68,-91,-114,-129,-135,-142,-144,-136,-115,-97,-82,-72,-65,-66,-67,-66,-64,-61,-65,-67,-64,-63,-62,-65,-65,-64,-63,-63,-64,-62,-63,-61,-61,-65,-63,-60,-59,-58,-50,-40,-41,-44,-35,-15,-6,-17,-48,-82,-102,-115,-108,-99,-89,-80,-74,-68,-67,-69,-31,-19,-159,-231,152,762,850,99,-855,-1167,-733,-158,119,155,109,36,5,1,-16,-30,-38,-49,-53,-51,-47,-46,-44,-41,-35,-31,-25,-21,-19,-20,-16,-11,-7,-9,-17,-19,-25,-40,-64,-90,-113,-131,-144,-148,-135,-115,-104,-95,-93,-88,-81,-74,-64,-57,-57,-60,-58,-53,-54,-66,-70,-65,-60,-61,-66,-66,-65,-64,-63,-62,-59,-52,-49,-54,1
person_abn16,-85,-85,-89,-86,-72,-60,-56,-61,-71,-81,-80,-77,-81,-91,-90,-83,-72,-73,-76,-73,-71,-72,-74,-73,-73,-73,-74,-72,-77,-82,-77,-69,-61,-46,-20,-4,-13,-42,-74,-85,-84,-88,-95,-95,-85,-75,-75,-78,-77,-67,-60,-37,-6,-87,-233,-53,602,1087,679,-433,-1278,-1243,-644,-120,123,201,170,79,25,11,-7,-24,-36,-42,-42,-44,-46,-47,-47,-46,-44,-35,-21,-14,-13,-18,-16,-11,-9,-11,-18,-21,-27,-31,-37,-47,-59,-77,-102,-120,-130,-127,-119,-105,-92,-83,-72,-66,-63,-60,-57,-61,-70,-75,-75,-68,-67,-73,-76,-77,-79,-81,-81,-82,-81,-77,-73,-73,-79,-81,-76,-77,-72,-67,-61,-57,-55,-54,-35,0,19,0,-41,-84,-104,-108,-105,-100,-86,-79,-81,-77,-68,-59,-59,-53,-25,1,-105,-221,63,747,1084,479,-668,-1361,-1143,-480,5,177,178,104,27,7,4,-21,-44,-55,-54,-43,-36,-38,-44,-45,-39,-24,-14,-9,-13,-11,-5,4,1,-12,-22,-30,-33,-35,-40,-48,-53,-63,-82,-106,-130,-139,-136,-126,-117,-111,-102,-92,-79,-70,-70,-70,-67,-63,-63,-63,-70,-76,-75,-77,-75,-71,-74,-76,-87,-91,-85,-76,-65,-60,-67,-80,-81,-65,-57,-58,-62,-62,-58,-54,-51,-45,-23,3,5,-23,-63,-92,-102,-106,-109,-110,-105,-96,-83,-71,-61,-61,-66,-51,-8,-40,-197,-177,339,960,873,-71,-1076,-1305,-796,-188,125,203,170,77,16,0,-15,-31,-40,-41,-38,-39,-39,-36,-32,-26,-26,-26,-19,-10,-4,-5,-8,-10,-14,-21,-27,-25,-29,-37,-48,-61,-73,-87,-104,-121,-134,-135,-133,-125,-117,-113,-108,-100,-92,-86,-78,-75,-73,-69,-66,-64,-66,-69,-76,-75,-52,-13,30,87,157,203,149,-10,-212,-385,-484,-512,-520,-500,-372,-96,203,349,293,175,107,66,22,-23,-53,-61,-63,-63,-60,-49,-38,-36,-32,-22,-2,13,12,3,-7,-13,-23,-34,-44,-62,-81,-98,-112,-126,-134,-139,-145,-151,-150,-140,-125,-113,-100,-86,-74,-80,-85,-78,-69,-58,-56,-65,-74,-77,-74,-71,-63,-57,-58,-65,-68,-68,-67,-64,-62,-56,-54,-55,-58,-65,-66,-67,-63,-57,-50,-45,-50,-57,-63,-63,-52,-45,-51,-62,-73,-67,-59,-54,-53,-57,-61,-62,-56,-50,-50,-51,-54,-58,-53,-44,-41,-47,-63,-67,-59,-58,-59,-60,-48,-31,-2,4,-20,-48,-73,-89,-97,-101,-97,-94,-91,-83,-72,-65,-64,-57,-28,-58,-190,-157,330,915,847,-30,-985,-1250,-842,-323,-16,132,179,115,34,4,-5,-17,-28,-39,-48,-47,-40,-37,-37,-38,-36,-26,-18,-19,-22,-27,-23,-14,-12,-12,-13,-3,4,8,-2,-14,-26,-42,-63,-88,-113,-127,-131,-130,-122,-111,-102,-94,-92,-89,-79,-64,-57,-60,-70,-76,-78,-75,-78,-81,-83,-79,-75,-76,-83,-91,-88,-77,-69,-68,-68,-66,-70,-74,-77,-75,-67,-60,-59,-55,-38,-6,3,-21,-60,-90,-104,-102,-99,-93,-88,-85,-80,-67,-53,-54,-62,-57,-24,-28,-168,-219,197,883,1015,211,-890,-1347,-974,-347,44,187,202,122,40,15,7,-6,-11,-23,-37,-45,-50,-51,-52,-52,-42,-27,-22,-18,-16,-9,-7,-8,-12,-14,-17,-21,-20,-19,-15,-18,-35,-66,-94,-113,-125,-134,-134,-129,-118,-111,-106,-95,-76,-69,-70,-75,-74,-68,-67,-73,-83,-86,-79,-73,-73,-76,-77,-76,-75,-69,-62,-57,-62,-73,-75,-66,-60,-62,-71,-77,-75,-60,-40,-16,2,-8,-36,-64,-83,-90,-97,-100,-97,-87,-82,-82,-85,-78,-67,-62,-44,-15,-77,-231,-105,503,1031,735,-313,-1205,-1249,-667,-103,153,204,151,56,11,2,-16,-33,-38,-41,-40,-42,-45,-41,-37,-35,-34,-35,-32,-22,-17,-12,-10,-6,-6,-13,-23,-27,-26,-25,-32,-45,-60,-87,-117,-143,-148,-143,-136,-127,-116,-98,-84,-80,-84,-82,-80,-80,-75,-64,-62,-73,-85,-84,-76,1
person_abn17,-67,-67,-66,-59,-57,-56,-54,-51,-52,-57,-54,-48,-40,-41,-53,-61,-67,-69,-66,-47,-21,-8,-17,-40,-65,-80,-79,-73,-67,-43,-28,-99,-174,80,715,965,165,-1149,-1728,-1120,-106,424,423,315,256,164,75,34,-1,-25,-34,-32,-22,-13,3,11,20,45,84,132,155,148,116,73,17,-45,-105,-161,-228,-284,-318,-324,-320,-304,-274,-236,-198,-159,-127,-95,-68,-49,-45,-49,-51,-44,-41,-48,-62,-71,-73,-75,-78,-84,-89,-87,-80,-77,-74,-71,-64,-62,-64,-67,-62,-57,-54,-54,-55,-63,-65,-44,-12,-8,-31,-55,-66,-69,-73,-89,-89,-50,-30,-113,-171,135,767,910,5,-1274,-1706,-985,21,491,445,321,246,139,63,36,11,-2,-11,-16,-14,-2,10,23,34,55,87,124,148,151,122,64,0,-61,-127,-195,-253,-293,-318,-321,-314,-292,-260,-231,-199,-156,-115,-85,-68,-54,-40,-29,-30,-39,-48,-56,-65,-77,-84,-84,-79,-77,-82,-80,-80,-76,-74,-79,-78,-62,-26,-3,-16,-51,-80,-87,-81,-75,-85,-79,-33,-25,-132,-185,163,791,849,-102,-1295,-1592,-843,84,472,410,294,213,115,56,36,10,-7,-15,-23,-17,-1,17,39,51,71,100,129,142,132,103,51,-19,-87,-153,-209,-258,-304,-325,-323,-297,-265,-235,-205,-169,-132,-98,-75,-57,-46,-44,-52,-53,-50,-49,-54,-68,-80,-92,-95,-89,-72,-59,-59,-65,-66,-59,-53,-56,-50,-23,4,1,-31,-61,-69,-71,-70,-76,-82,-62,-31,-76,-194,-89,458,914,468,-753,-1621,-1348,-369,366,504,374,269,163,71,45,19,-9,-29,-36,-18,14,22,15,18,54,94,112,118,114,105,65,-3,-72,-129,-179,-225,-263,-285,-292,-289,-275,-248,-214,-183,-153,-127,-106,-91,-66,-26,38,114,234,425,568,616,847,1328,1536,828,-673,-2002,-2329,-1781,-1058,-578,-338,-232,-157,-112,-108,-112,-105,-97,-84,-90,-109,-123,-111,-89,-58,-12,55,121,175,210,228,235,227,193,142,89,42,0,-38,-69,-89,-99,-97,-90,-83,-80,-77,-71,-69,-69,-69,-74,-76,-77,-69,-63,-67,-77,-76,-60,-53,-59,-63,-61,-59,-65,-71,-69,-67,-69,-64,-57,-58,-62,-64,-62,-54,-51,-51,-59,-68,-68,-55,-51,-61,-73,-72,-57,-51,-55,-58,-51,-42,-44,-48,-48,-44,-38,-47,-56,-55,-47,-48,-58,-50,-25,-7,-24,-49,-66,-67,-66,-79,-85,-57,-40,-117,-184,91,699,892,115,-1084,-1587,-1026,-122,359,364,262,188,97,40,14,-5,-12,-13,-21,-16,-8,5,16,31,49,68,86,88,74,55,34,6,-27,-60,-86,-109,-124,-145,-172,-196,-210,-214,-216,-214,-197,-171,-148,-136,-123,-106,-90,-89,-92,-93,-91,-85,-83,-86,-90,-93,-90,-85,-77,-68,-62,-60,-62,-60,-58,-61,-53,-24,9,14,-12,-39,-56,-67,-74,-84,-92,-81,-41,-38,-145,-147,299,871,701,-381,-1431,-1459,-605,195,432,344,254,165,74,39,20,3,-14,-30,-30,-17,-5,7,16,35,56,71,83,81,62,26,-7,-37,-72,-107,-145,-168,-186,-208,-223,-228,-219,-195,-170,-145,-119,-101,-93,-90,-85,-82,-77,-76,-79,-79,-76,-70,-68,-66,-64,-64,-65,-69,-68,-66,-55,-25,4,6,-31,-70,-91,-89,-81,-69,-60,-47,-24,-50,-146,-59,482,958,494,-791,-1704,-1402,-353,385,488,365,293,200,89,39,14,1,5,-3,-18,-33,-27,-3,21,46,66,81,89,88,73,35,-15,-55,-90,-115,-147,-175,-192,-203,-214,-216,-211,-193,-172,-154,-138,-120,-103,-89,-81,-77,-79,-77,-81,-84,-78,-77,-77,-78,-76,-71,-66,-69,-70,-48,-14,-5,-28,-62,-78,-78,-76,-77,-75,-59,-21,-44,-145,-44,518,1003,515,-820,-1769,-1449,-361,401,501,356,277,192,93,54,28,-3,-13,-19,-19,-15,-11,-1,22,58,88,101,98,90,77,46,-12,-81,-132,-166,-193,-226,-253,-258,-246,-228,-215,1
person_abn18,-50,-45,-43,-48,-53,-54,-49,-46,-51,-56,-59,-57,-54,-51,-45,-44,-41,-47,-61,-74,-79,-75,-58,-35,-17,-19,-36,-65,-86,-94,-91,-87,-83,-86,-87,-84,-80,-73,-66,-63,-66,-57,-28,-48,-168,-141,350,970,930,58,-849,-989,-500,-80,-39,-108,-87,-56,-56,-53,-48,-44,-41,-38,-41,-44,-44,-43,-38,-27,-18,-15,-18,-12,-1,13,18,9,2,-8,-20,-43,-88,-149,-207,-246,-248,-233,-206,-175,-145,-118,-101,-84,-64,-53,-49,-50,-49,-47,-40,-42,-43,-40,-39,-39,-43,-46,-48,-51,-54,-53,-50,-51,-52,-52,-53,-49,-49,-53,-57,-64,-65,-65,-63,-49,-24,-10,-18,-41,-62,-72,-73,-68,-65,-63,-57,-51,-44,-49,-55,-48,-44,-52,-45,-16,-48,-164,-97,418,975,834,-62,-890,-947,-444,-61,-37,-103,-90,-62,-52,-40,-36,-41,-39,-40,-37,-32,-34,-34,-27,-17,-6,0,6,8,5,3,3,-4,-17,-26,-36,-54,-93,-147,-200,-239,-244,-226,-192,-161,-140,-120,-96,-77,-69,-65,-63,-56,-51,-46,-49,-51,-48,-39,-39,-45,-55,-61,-59,-58,-64,-70,-67,-58,-48,-48,-53,-59,-63,-70,-76,-71,-54,-36,-30,-48,-64,-86,-90,-88,-88,-86,-83,-74,-69,-67,-64,-61,-58,-65,-59,-22,-12,-114,-175,172,813,1022,347,-662,-1073,-705,-173,0,-67,-86,-52,-37,-40,-46,-49,-48,-40,-37,-32,-26,-18,-12,-8,-5,-3,3,5,11,23,26,19,6,-11,-22,-42,-81,-135,-188,-221,-232,-225,-202,-173,-140,-112,-100,-86,-74,-68,-68,-68,-64,-56,-49,-50,-53,-54,-53,-54,-55,-56,-56,-61,-64,-63,-57,-58,-68,-78,-71,-50,-24,-17,-32,-62,-84,-83,-76,-71,-66,-58,-49,-47,-52,-57,-53,-50,-47,-47,-33,-4,-35,-179,-129,416,1031,901,-61,-955,-999,-443,-37,-37,-116,-86,-51,-36,-27,-39,-77,-116,-119,-91,-55,-38,-36,-30,-20,-10,-3,2,5,11,17,40,65,75,64,21,-39,-110,-177,-225,-247,-242,-227,-198,-169,-142,-117,-96,-83,-78,-72,-66,-64,-64,-65,-63,-60,-53,-51,-53,-49,-41,-35,-43,-55,-65,-64,-60,-63,-64,-53,-33,-21,-32,-53,-68,-67,-63,-64,-66,-64,-59,-58,-57,-55,-53,-51,-57,-54,-27,-17,-112,-212,70,726,1039,464,-560,-1061,-751,-219,-24,-86,-108,-72,-57,-55,-51,-54,-56,-53,-47,-46,-43,-36,-27,-24,-21,-18,-10,0,10,-39,-39,-45,-55,-61,-59,-58,-64,-70,-67,-58,-48,-48,-53,-59,-63,-70,-76,-71,-54,-36,-30,-48,-64,-86,-90,-88,-88,-86,-83,-74,-69,-67,-64,-61,-58,-65,-59,-22,-12,-114,-175,172,813,1022,347,-662,-1073,-705,-173,0,-67,-86,-52,-37,-40,-46,-49,-48,-40,-37,-32,-26,-18,-12,-8,-5,-3,3,5,11,23,26,19,6,-11,-22,-42,-81,-135,-188,-221,-232,-225,-202,-173,-140,-112,-100,-86,-74,-68,-68,-68,-64,-56,-49,-50,-53,-54,-53,-54,-55,-56,-56,-61,-64,-63,-57,-58,-68,-78,-71,-50,-24,-17,-32,-62,-84,-83,-76,-71,-66,-58,-49,-47,-52,-57,-53,-50,-47,-47,-33,-4,-35,-179,-129,416,1031,901,-61,-955,-999,-443,-37,-37,-116,-86,-51,-36,-27,-39,-77,-116,-119,-91,-55,-38,-36,-30,-20,-10,-3,2,5,11,17,40,65,75,64,21,-39,-110,-177,-225,-247,-242,-227,-198,-169,-142,-117,-96,-83,-78,-72,-66,-64,-64,-65,-63,-60,-53,-51,-53,-49,-41,-35,-43,-55,-65,-64,-60,-63,-64,-53,-33,-21,-32,-53,-68,-67,-63,-64,-66,-64,-59,-58,-57,-55,-53,-51,-57,-54,-27,-17,-112,-212,70,726,1039,464,-560,-1061,-751,-219,-24,-86,-108,-72,-57,-55,-51,-54,-56,-53,-47,-46,-43,-36,-27,-24,-21,-18,-10,0,10,-40,-41,-39,-30,-13,5,24,36,19,-20,-54,-56,-32,-38,-110,-211,-280,-291,-259,-213,-176,-148,-137,-111,-25,66,60,-60,1
person_abn19,-9,-11,-35,-56,-61,-65,-71,-74,-78,-71,-36,-22,-117,-200,115,792,1017,198,-1052,-1568,-1001,-118,318,311,224,162,88,42,21,-1,-12,-15,-26,-35,-37,-17,5,20,35,50,62,70,78,78,66,33,-5,-43,-87,-154,-228,-286,-314,-317,-305,-281,-250,-222,-202,-181,-154,-117,-78,-33,-15,-28,-60,-67,-50,-34,-37,-45,-48,-40,-30,-22,-33,-53,-57,-43,-31,-38,-53,-59,-54,-56,-50,-41,-43,-55,-66,-65,-59,-55,-52,-53,-51,-57,-52,-35,-18,-14,-29,-54,-65,-59,-60,-60,-37,-37,-122,-147,226,860,899,-112,-1364,-1671,-884,64,441,371,276,219,116,43,20,-4,-18,-33,-38,-25,-17,-3,15,38,53,72,96,132,158,163,130,83,19,-49,-125,-203,-276,-331,-357,-362,-350,-322,-289,-241,-204,-170,-141,-101,-66,-47,-46,-48,-40,-35,-45,-59,-61,-51,-41,-49,-69,-85,-79,-72,-65,-63,-71,-75,-71,-61,-59,-59,-56,-63,-65,-62,-48,-39,-37,-38,-27,-24,-45,-68,-77,-74,-69,-71,-75,-71,-39,-55,-142,-72,421,949,613,-648,-1721,-1614,-583,312,569,474,376,272,146,77,42,18,8,-4,-15,-17,-4,13,26,39,59,85,118,140,147,132,97,44,-18,-81,-152,-230,-300,-340,-348,-336,-321,-297,-266,-227,-195,-155,-126,-102,-89,-74,-57,-41,-45,-57,-59,-52,-53,-62,-78,-93,-99,-93,-84,-83,-76,-68,-66,-75,-78,-67,-56,-55,-59,-38,-4,13,0,-22,-43,-52,-58,-63,-69,-58,-17,-13,-109,-134,274,917,869,-234,-1487,-1702,-822,145,502,420,313,234,124,49,15,-15,-27,-32,-36,-30,-18,-9,-1,16,40,66,87,114,136,132,99,48,-9,-71,-135,-196,-257,-308,-339,-342,-328,-311,-288,-248,-194,-142,-104,-87,-72,-42,18,96,197,359,544,647,785,1076,1249,841,-241,-1415,-1951,-1719,-1183,-767,-511,-345,-222,-133,-116,-126,-115,-97,-70,-60,-81,-119,-153,-160,-145,-117,-77,-10,70,152,218,265,293,293,259,204,145,91,39,-11,-51,-71,-84,-87,-83,-85,-85,-83,-77,-74,-76,-79,-80,-78,-70,-53,-45,-57,-78,-72,-47,-41,-66,-73,-50,-39,-47,-35,-26,-45,-81,-83,-41,-16,-44,-88,-90,-56,-24,-16,-40,-69,-77,-78,-88,-104,-111,-115,-116,-110,-110,-104,-89,-76,-75,-88,-88,-80,-67,-62,-65,-63,-57,-48,-47,-44,-40,-45,-39,-10,12,7,-31,-58,-58,-44,-50,-62,-36,0,-52,-153,42,708,1116,430,-998,-1837,-1372,-287,389,448,329,266,167,63,18,-13,-32,-35,-33,-33,-40,-41,-30,-16,-3,23,52,77,88,88,77,58,24,-19,-56,-89,-113,-142,-169,-192,-212,-224,-230,-227,-212,-195,-180,-162,-138,-114,-98,-90,-84,-79,-76,-73,-71,-74,-83,-89,-86,-81,-78,-77,-71,-68,-68,-63,-55,-53,-56,-39,-2,14,-2,-38,-66,-73,-74,-78,-87,-80,-40,-27,-125,-201,162,873,1004,16,-1312,-1724,-981,-6,416,368,273,214,116,52,22,1,-11,-22,-37,-37,-31,-21,-12,9,36,69,94,104,107,96,67,22,-37,-92,-138,-184,-226,-258,-269,-269,-265,-259,-237,-198,-153,-118,-97,-87,-75,-64,-56,-59,-60,-60,-59,-56,-63,-72,-77,-77,-71,-67,-62,-62,-65,-64,-59,-57,-61,-47,-15,10,-2,-41,-67,-73,-75,-84,-89,-85,-56,-15,-71,-206,-61,574,1026,465,-825,-1626,-1252,-288,321,380,281,216,131,62,42,12,-14,-29,-35,-35,-29,-23,-8,9,32,57,76,92,98,94,78,44,-2,-48,-95,-139,-184,-227,-264,-278,-273,-258,-238,-215,-181,-148,-126,-107,-89,-77,-72,-71,-66,-68,-67,-71,-78,-75,-73,-67,-64,-63,-66,-67,-60,-54,-54,-47,-40,-42,-42,-27,3,17,-2,-41,-69,-76,-76,-67,-61,-62,-47,-18,-82,-193,38,680,940,158,-1112,-1652,-1037,-66,409,386,288,222,122,52,26,5,-10,-25,-44,-46,-31,-16,1
person_abn20,-39,-59,-76,-69,-48,-33,-43,-61,-63,-48,-35,-30,-26,-25,-24,-26,-30,-37,-53,-74,-85,-86,-77,-70,-60,-59,-69,-78,-87,-83,-74,-69,-74,-79,-71,-63,-63,-67,-75,-81,-83,-84,-80,-77,-70,-63,-59,-46,-40,-44,-62,-75,-72,-63,-69,-85,-95,-83,-66,-58,-61,-67,-60,-38,-27,-37,-60,-72,-66,-48,-27,-16,-19,-33,-65,-93,-98,-90,-86,-81,-79,-67,-78,-210,-392,-328,157,770,963,555,-128,-629,-800,-737,-573,-424,-344,-320,-286,-222,-134,-43,49,109,143,165,167,126,55,5,0,14,33,64,96,105,69,-8,-84,-117,-109,-115,-169,-231,-243,-201,-147,-111,-97,-94,-126,-156,-152,-108,-51,-10,25,79,151,193,166,114,77,43,4,-24,-37,-39,-35,0,51,50,-25,-104,-102,-50,-26,-52,-114,-150,-133,-107,-112,-127,-105,-47,-15,-44,-101,-131,-120,-87,-70,-73,-88,-140,-224,-212,64,603,1037,935,328,-307,-573,-501,-345,-258,-203,-139,-119,-186,-262,-243,-136,-81,-106,-150,-155,-135,-114,-95,-69,-66,-120,-160,-117,-83,-125,-182,-156,-37,82,102,57,43,58,50,22,-4,-11,-28,-73,-117,-133,-121,-116,-119,-118,-104,-62,-43,-76,-96,-68,-76,-165,-206,-77,112,138,-2,-49,41,88,24,-101,-212,-262,-229,-167,-126,-125,-152,-114,-31,9,0,-48,-92,-91,-85,-105,-128,-129,-100,-18,63,107,99,47,-16,-59,-80,-84,-61,-4,42,16,-99,-176,-135,-80,-74,-108,-155,-185,-174,-112,-36,-14,-22,-6,28,21,-25,-27,13,2,-60,-85,-35,-5,-79,-158,-97,61,130,45,-87,-141,-114,-77,-73,-87,-88,-74,-50,-37,-79,-135,-129,-53,12,-8,-77,-128,-128,-94,-24,62,75,9,-56,-134,-250,-237,121,681,962,670,9,-535,-698,-593,-433,-317,-259,-227,-189,-160,-157,-153,-113,-33,26,-18,-113,-138,-104,-106,-152,-174,-144,-118,-131,-148,-120,-64,-12,27,60,84,101,91,60,38,49,56,47,26,22,24,2,-39,-57,-47,-72,-140,-155,-65,35,38,-57,-125,-95,-46,-45,-78,-114,-132,-147,-164,-181,-191,-195,-183,-156,-134,-129,-119,-109,-122,-142,-129,-83,-57,-66,-61,-19,3,-36,-87,-98,-82,-75,-83,-88,-92,-124,-174,-187,-136,-56,-15,-17,-18,8,38,42,33,26,21,16,17,19,15,-9,-43,-72,-93,-101,-100,-102,-100,-86,-57,-42,-56,-77,-83,-69,-65,-65,-60,-53,-22,-34,-200,-388,-242,378,1049,1148,562,-217,-690,-793,-719,-582,-447,-338,-261,-220,-208,-208,-214,-212,-221,-301,-453,-572,-562,-466,-378,-342,-303,-198,-16,205,427,589,647,605,523,435,378,339,300,263,239,213,166,115,76,38,-9,-47,-50,-25,0,1,-17,-42,-58,-76,-103,-152,-221,-280,-316,-322,-305,-287,-282,-282,-269,-233,-175,-106,-46,-6,10,9,11,14,14,20,15,-6,-32,-37,-26,-28,-28,-11,10,-10,-81,-139,-129,-58,3,-8,-98,-258,-455,-596,-615,-492,-268,-51,107,213,273,305,337,358,352,312,236,137,45,-30,-86,-120,-145,-158,-145,-119,-79,-34,12,65,129,182,239,333,414,374,159,-114,-198,-63,34,-153,-604,-994,-945,-364,399,790,548,-50,-466,-531,-486,-460,-402,-277,-166,-145,-142,-110,-104,-170,-223,-198,-145,-109,-82,-79,-79,-101,-140,-173,-183,-178,-174,-175,-174,-174,-152,-109,-53,-16,-4,11,65,145,210,223,190,132,75,25,-8,-34,-56,-69,-78,-73,-60,-58,-82,-105,-95,-63,-26,-12,-20,-29,-41,-59,-65,-61,-63,-72,-74,-63,-53,-45,-48,-63,-74,-80,-76,-64,-59,-59,-57,-57,-70,-84,-89,-81,-64,-52,-61,-71,-70,-61,-69,-88,-86,-63,-44,-44,-54,-54,-45,-51,-64,-79,-79,-60,-31,-23,-42,-66,-76,-68,-59,-61,-56,-54,-62,-70,-66,-43,-19,-29,-82,-124,-91,-23,12,-11,-44,-107,-266,-371,-125,473,965,887,314,-287,-583,-614,1
person_abn21,-48,-65,-74,-88,-112,-127,-126,-150,-154,40,460,763,438,-541,-1401,-1359,-500,366,645,453,224,144,104,37,1,6,31,59,67,74,85,87,75,56,35,17,-7,-40,-101,-180,-261,-313,-327,-313,-289,-252,-203,-153,-109,-84,-69,-67,-82,-103,-114,-100,-84,-79,-80,-69,-52,-45,-49,-55,-59,-60,-58,-59,-65,-73,-82,-90,-83,-42,21,38,-19,30,349,753,699,-131,-1207,-1571,-925,56,572,494,215,71,38,16,10,13,10,18,40,73,98,114,114,106,88,62,31,-13,-79,-161,-244,-309,-351,-369,-358,-317,-248,-173,-113,-73,-59,-55,-58,-64,-69,-65,-44,-20,-17,-36,-60,-85,-100,-104,-94,-69,-45,-47,-73,19,344,661,448,-491,-1522,-1700,-824,328,893,753,385,179,138,108,51,9,-1,17,45,74,108,127,121,95,68,38,6,-27,-90,-187,-289,-352,-371,-356,-335,-300,-247,-187,-134,-97,-72,-62,-52,-39,-36,-38,-38,-35,-30,-24,-38,-67,-91,-94,-80,-60,-40,-37,-71,-37,206,553,567,-102,-1143,-1684,-1215,-148,645,770,499,240,137,83,38,28,33,38,52,76,103,112,104,97,90,76,47,-3,-80,-186,-288,-355,-371,-347,-309,-259,-203,-157,-136,-116,-88,-54,-39,-54,-75,-81,-71,-64,-64,-68,-78,-88,-96,-91,-70,-54,-47,-32,-12,5,-7,-31,-54,-55,-60,-73,-77,-77,-79,-87,-91,-91,-75,-58,-79,-59,182,633,915,500,-603,-1555,-1521,-602,323,616,412,172,100,74,25,-2,6,32,64,87,98,117,131,123,98,67,33,-7,-63,-134,-208,-280,-345,-382,-381,-339,-277,-202,-139,-101,-94,-96,-90,-87,-90,-91,-89,-72,-52,-37,-36,-42,-42,-39,-40,-40,-36,-39,-49,46,319,520,191,-732,-1545,-1442,-475,516,854,617,296,148,107,66,39,34,30,25,24,38,77,113,112,89,49,16,-18,-72,-152,-246,-331,-384,-387,-339,-254,-165,-99,-59,-29,-7,2,-16,-53,-86,-102,-105,-103,-100,-91,-77,-71,-78,-89,-94,-93,-81,-71,-64,-51,-28,-9,-7,-28,-50,-51,-42,-41,-57,-67,-67,-68,-74,-80,-80,-73,-70,-63,-44,-47,-51,103,496,863,668,-289,-1388,-1675,-934,103,627,545,271,134,98,66,49,45,35,22,31,66,105,117,99,75,58,46,23,-17,-68,-130,-201,-279,-332,-335,-304,-268,-244,-227,-205,-172,-130,-93,-73,-70,-66,-48,-26,-15,-22,-18,-21,-75,-116,88,552,789,192,-1081,-1942,-1559,-317,687,886,583,287,169,114,64,44,34,38,47,55,51,48,50,54,56,60,51,23,-39,-129,-229,-310,-364,-376,-352,-295,-232,-177,-133,-90,-44,-9,7,-7,-33,-64,-83,-85,-78,-76,-82,-91,-98,-90,-65,-54,-68,-91,-81,-35,-1,-29,-28,182,567,768,327,-678,-1461,-1330,-465,327,540,335,135,93,85,57,54,69,93,104,102,99,102,104,95,75,59,39,8,-49,-128,-222,-303,-354,-363,-335,-288,-237,-194,-167,-152,-147,-136,-124,-112,-107,-95,-81,-71,-62,-51,-33,-15,-3,3,2,-4,-3,0,-14,-56,-106,-129,-122,-99,-83,-80,-67,-26,6,-20,13,294,747,896,242,-946,-1678,-1327,-312,444,535,288,111,84,69,42,33,32,34,46,68,94,104,94,69,42,27,15,-9,-63,-144,-236,-310,-350,-363,-338,-277,-193,-122,-88,-85,-94,-96,-92,-82,-70,-64,-63,-67,-68,-63,-63,-63,-64,-65,-64,-66,-61,-49,-37,-26,-6,-19,-103,-106,144,506,488,-223,-1167,-1456,-804,163,672,596,321,166,118,70,34,28,32,30,37,48,64,74,79,69,48,30,16,-12,-69,-151,-234,-298,-323,-307,-272,-249,-230,-194,-150,-107,-93,-101,-102,-87,-65,-63,-85,-110,-117,-87,-47,-23,-18,-11,1,3,-20,-51,-72,-79,-74,-68,-59,-57,-53,-80,-146,-63,315,755,701,-145,-1221,-1561,-891,103,615,524,238,96,75,52,26,26,1
person_abn22,-60,-66,-68,-64,-61,-61,-62,-66,-69,-72,-71,-66,-60,-60,-60,-62,-60,-62,-61,-55,-46,-48,-62,-69,-60,-46,-42,-42,-38,-42,-55,-69,-62,-44,-43,-60,-82,-87,-78,-63,-57,-66,-80,-82,-39,-17,-141,-231,119,769,948,244,-781,-1233,-916,-357,-10,138,181,121,39,6,-14,-36,-47,-45,-40,-40,-43,-46,-48,-42,-34,-29,-31,-35,-33,-30,-24,-21,-20,-25,-31,-32,-28,-23,-21,-31,-43,-59,-86,-117,-138,-138,-124,-114,-104,-99,-97,-91,-80,-67,-55,-54,-58,-62,-66,-70,-75,-84,-91,-89,-88,-83,-78,-77,-76,-74,-66,-64,-71,-74,-69,-59,-59,-63,-65,-66,-63,-56,-45,-38,-38,-44,-40,-35,-45,-66,-77,-61,-43,-50,-84,-109,-99,-75,-67,-72,-77,-74,-71,-49,-5,-48,-233,-217,342,1005,921,-52,-1069,-1280,-766,-184,96,168,144,67,21,11,-7,-25,-37,-50,-55,-49,-38,-33,-36,-40,-42,-39,-38,-33,-27,-21,-18,-24,-33,-41,-42,-41,-43,-46,-40,-44,-71,-110,-129,-127,-125,-135,-141,-123,-99,-81,-78,-70,-70,-68,-68,-70,-62,-56,-57,-61,-63,-60,-61,-56,-68,-80,-86,-82,-71,-66,-64,-65,-66,-67,-62,-58,-56,-61,-63,-62,-59,-54,-50,-53,-56,-51,-35,-38,-62,-73,-59,-47,-53,-70,-79,-80,-77,-74,-66,-64,-68,-77,-53,-10,-96,-260,-100,558,1072,689,-413,-1252,-1188,-551,-29,162,172,111,28,-8,-18,-35,-43,-42,-37,-34,-39,-46,-42,-33,-29,-32,-31,-26,-18,-10,-5,-6,-16,-22,-26,-30,-31,-33,-36,-43,-57,-78,-106,-132,-143,-138,-131,-132,-130,-120,-105,-97,-89,-77,-67,-64,-65,-67,-67,-67,-65,-73,-85,-74,-31,22,84,153,201,171,42,-146,-325,-416,-418,-415,-427,-369,-156,107,243,189,66,10,10,4,-12,-46,-54,-36,-18,-34,-60,-66,-50,-24,-9,-5,-10,-13,-9,1,1,-5,-17,-33,-56,-78,-99,-117,-130,-139,-144,-148,-146,-143,-136,-128,-116,-108,-95,-81,-70,-63,-65,-66,-61,-55,-53,-59,-65,-69,-65,-62,-63,-57,-54,-51,-49,-54,-56,-55,-52,-55,-63,-62,-51,-43,-48,-60,-55,-41,-35,-40,-44,-46,-49,-52,-53,-49,-48,-47,-48,-44,-41,-45,-49,-51,-51,-51,-55,-53,-46,-39,-42,-51,-62,-70,-65,-54,-47,-50,-60,-71,-74,-60,-46,-33,-32,-31,-21,-3,-5,-27,-56,-77,-91,-98,-99,-86,-79,-73,-70,-62,-59,-47,-17,-70,-225,-140,436,996,774,-215,-1105,-1208,-707,-212,37,141,153,86,29,8,-10,-24,-34,-41,-44,-42,-38,-31,-24,-22,-28,-36,-39,-29,-22,-20,-21,-17,-13,-7,-11,-15,-8,0,-6,-22,-38,-55,-77,-103,-116,-123,-129,-132,-127,-113,-97,-90,-85,-81,-71,-72,-74,-78,-76,-74,-78,-82,-81,-80,-84,-85,-80,-81,-83,-85,-83,-72,-68,-71,-75,-80,-81,-68,-62,-55,-36,-8,6,-14,-50,-75,-81,-83,-87,-90,-79,-76,-69,-63,-58,-53,-56,-43,-4,-57,-232,-166,434,1058,875,-154,-1133,-1279,-738,-175,96,178,159,77,24,8,-5,-20,-31,-44,-48,-43,-42,-44,-43,-36,-24,-17,-13,-14,-16,-13,-10,-9,-14,-27,-36,-36,-35,-32,-37,-48,-64,-86,-112,-127,-127,-120,-117,-113,-102,-88,-80,-76,-71,-61,-60,-66,-69,-72,-64,-61,-64,-66,-67,-68,-72,-74,-74,-72,-65,-64,-72,-81,-86,-75,-66,-66,-54,-21,7,-2,-45,-82,-101,-101,-103,-107,-99,-85,-75,-73,-72,-68,-66,-67,-33,-4,-112,-260,-17,660,1046,507,-598,-1294,-1099,-460,7,172,178,108,30,7,-2,-21,-33,-36,-40,-45,-50,-51,-51,-42,-31,-21,-8,-5,-12,-16,-12,-5,-6,-19,-34,-38,-39,-37,-37,-46,-60,-83,-114,-142,-146,-130,-116,-112,-113,-101,-85,-75,-74,-75,-75,-68,-63,-58,-57,-62,-68,-71,-70,-73,-72,-69,-69,-69,-69,-69,-71,-72,-65,-65,-70,-75,-70,-59,1
person_abn23,-2,-11,0,13,14,-9,-44,-75,-87,-46,61,170,204,138,-26,-195,-256,-207,-116,-52,-45,-64,-57,-5,62,94,68,5,-68,-127,-136,-75,-11,-23,-84,-80,24,110,83,-11,-79,-82,-51,-44,-74,-118,-133,-128,-142,-155,-115,-106,-259,-515,-531,-9,747,997,443,-378,-739,-537,-191,-9,28,26,-17,-64,-74,-93,-127,-111,-62,-51,-102,-130,-110,-106,-120,-101,-65,-72,-91,-53,3,8,-8,20,85,90,26,13,85,155,154,92,30,-9,-50,-88,-105,-116,-146,-200,-242,-220,-154,-101,-95,-95,-64,-20,7,16,3,-40,-89,-93,-86,-86,-81,-56,-49,-102,-152,-132,-75,-15,31,49,19,-9,9,27,-26,-117,-144,-83,-32,-37,-56,-50,-40,-36,-46,-66,-83,-93,-123,-161,-167,-132,-94,-102,-175,-260,-300,-305,-306,-349,-436,-472,-389,-240,-135,-144,-166,-126,-131,-285,-511,-616,-469,-173,57,92,-48,-72,368,1035,1174,531,-251,-514,-276,-31,-5,25,178,273,230,128,62,64,89,59,-26,-83,-85,-54,-28,-39,-79,-129,-169,-196,-208,-187,-152,-128,-111,-96,-77,-76,-89,-70,-4,64,86,101,123,89,-24,-150,-205,-189,-181,-185,-165,-120,-72,-46,-48,-56,-27,54,122,121,56,-9,-31,-34,-35,-49,-69,-103,-122,-94,-14,38,25,0,-2,-40,-158,-227,-122,69,145,70,-23,-53,-68,-92,-112,-114,-117,-132,-117,-83,-87,-150,-191,-135,-23,33,-19,-104,-142,-148,-160,-160,-99,-3,52,38,-14,-67,-117,-152,-145,-96,-15,24,-28,-135,-179,-127,-60,-80,-195,-312,-211,257,788,796,148,-586,-765,-408,-55,-20,-137,-126,20,164,194,112,17,-41,-122,-216,-236,-179,-94,-44,-28,-34,-42,-52,-44,-5,19,8,-10,-14,1,26,61,92,91,52,5,-19,-22,-17,-34,-79,-149,-213,-236,-190,-117,-58,-37,-44,-53,-47,-48,-74,-108,-105,-12,130,165,36,-154,-239,-180,-96,-84,-112,-126,-127,-141,-159,-142,-92,-72,-114,-202,-246,-195,-66,24,28,-11,-28,-13,-8,-42,-77,-74,-32,-1,-13,-4,45,54,-27,-79,3,153,180,44,-115,-158,-142,-150,-170,-165,-144,-154,-219,-246,-170,-45,20,-9,-78,-89,-8,57,16,-73,-98,-70,-96,-205,-259,-164,-23,26,-48,-138,-155,-118,-78,-75,-55,12,48,-19,-148,-193,-108,-2,19,-26,-58,-55,-50,-61,-66,-57,-46,-63,-86,-72,-29,4,2,-9,18,97,153,89,-81,-94,298,797,747,41,-721,-971,-709,-329,-116,-67,-90,-137,-161,-189,-278,-321,-247,-146,-89,-88,-87,-75,-88,-91,-46,47,147,187,171,118,53,-18,-59,-29,3,-5,-18,16,79,78,-25,-180,-294,-265,-155,-103,-132,-174,-179,-182,-224,-224,-122,-42,-110,-248,-301,-224,-116,-77,-43,67,201,233,143,20,-38,-32,-31,-32,-1,41,56,17,-57,-125,-162,-154,-99,-45,-44,-82,-103,-73,-38,-47,-69,-51,-8,-7,-17,-23,-50,-14,135,330,413,305,108,-34,-85,-81,-64,-71,-87,-52,29,81,65,-33,-177,-269,-215,-47,39,-78,-251,-269,-163,-116,-150,-207,-215,-15,383,589,187,-641,-1169,-946,-303,121,166,86,43,43,43,14,-11,-15,-8,-19,-67,-80,15,154,174,38,-76,-28,92,109,-5,-91,-53,45,95,95,119,153,160,121,62,-13,-132,-277,-356,-349,-341,-406,-478,-469,-363,-230,-161,-162,-163,-144,-116,-99,-81,-44,-8,-24,-81,-89,-16,65,66,-14,-83,-47,78,155,116,10,-85,-100,-37,1,-14,-17,9,15,-27,-76,-88,-64,-70,-106,-124,-122,-122,-96,-43,-19,-53,-62,-3,22,-40,-98,-94,-75,-77,-77,-27,35,31,-3,9,44,45,16,-24,-80,-140,-169,-145,-87,-79,-124,-117,-35,37,22,-54,-98,-79,-6,69,106,76,-1,-38,-21,-41,-131,-198,-151,-18,87,59,-12,-5,-7,-139,-343,-473,-442,-300,-162,-91,-66,-77,-83,-39,-24,-54,-40,48,1
person_abn24,-32,-22,-34,-55,-68,-75,-80,-71,-65,-60,-57,-57,-58,-56,-47,-43,-47,-47,-55,-62,-62,-40,-22,-82,-199,-78,434,894,679,-133,-787,-775,-358,-85,-77,-109,-80,-61,-59,-54,-48,-43,-40,-45,-47,-49,-50,-46,-42,-37,-36,-36,-26,-16,-6,-3,-5,-6,-12,-19,-28,-44,-68,-105,-143,-169,-181,-176,-163,-144,-128,-109,-90,-76,-67,-63,-60,-55,-53,-49,-41,-39,-38,-43,-50,-53,-57,-59,-60,-55,-51,-55,-59,-61,-48,-25,-14,-20,-46,-68,-80,-79,-70,-62,-63,-70,-71,-64,-59,-53,-52,-61,-60,-57,-54,-61,-57,-30,-45,-158,-197,151,731,878,288,-532,-845,-559,-189,-78,-115,-107,-77,-66,-58,-50,-46,-44,-43,-42,-44,-47,-53,-55,-50,-40,-33,-33,-32,-21,-8,0,0,-10,-18,-26,-36,-57,-89,-130,-161,-184,-183,-171,-155,-134,-113,-87,-74,-67,-63,-66,-67,-64,-53,-43,-42,-45,-53,-53,-52,-50,-42,-45,-52,-51,-49,-54,-65,-59,-31,-7,-9,-35,-59,-73,-80,-75,-68,-65,-62,-64,-56,-52,-55,-58,-64,-58,-59,-41,-36,-138,-183,118,619,707,63,-788,-1069,-642,-70,178,165,100,44,17,2,-6,-18,-29,-44,-52,-54,-52,-48,-40,-38,-36,-30,-19,-6,7,18,27,32,26,14,-1,-22,-55,-107,-168,-222,-256,-263,-244,-216,-176,-141,-118,-102,-96,-90,-79,-62,-50,-44,-36,-28,-24,-27,-41,-44,-42,-38,-46,-52,-50,-48,-51,-55,-65,-59,-46,-25,-17,-28,-44,-61,-72,-76,-75,-66,-58,-54,-51,-55,-51,-53,-55,-57,-63,-60,-55,-57,-51,-31,-30,-126,-200,61,627,909,441,-424,-891,-685,-244,-51,-79,-98,-75,-64,-56,-44,-37,-41,-46,-49,-51,-53,-51,-41,-35,-37,-34,-30,-23,-14,-7,-3,-3,-3,-10,-24,-31,-47,-73,-119,-158,-178,-179,-169,-149,-134,-112,-100,-90,-79,-68,-58,-53,-45,-41,-42,-37,-43,-44,-44,-47,-47,-53,-55,-55,-53,-52,-61,-58,-44,-25,-16,-27,-45,-62,-74,-74,-72,-66,-63,-63,-61,-57,-52,-47,-49,-49,-53,-54,-56,-62,-50,-24,-44,-159,-178,196,773,878,242,-585,-864,-543,-158,-60,-105,-99,-71,-63,-56,-47,-38,-35,-37,-46,-45,-44,-40,-40,-40,-40,-38,-36,-29,-18,-7,-4,-8,-10,-13,-20,-37,-67,-104,-148,-180,-190,-185,-171,-152,-132,-111,-98,-89,-80,-69,-62,-61,-58,-54,-50,-47,-50,-54,-54,-57,-44,-19,-73,-135,75,515,661,148,-683,-1089,-782,-194,176,263,216,129,57,13,-17,-37,-49,-54,-50,-44,-37,-39,-41,-38,-31,-22,-10,-1,8,10,13,14,6,-5,-26,-62,-114,-174,-225,-254,-259,-243,-213,-175,-138,-109,-80,-60,-46,-41,-37,-36,-39,-44,-48,-52,-49,-53,-52,-54,-56,-55,-60,-59,-57,-54,-51,-56,-55,-57,-54,-50,-52,-54,-52,-51,-45,-46,-46,-51,-56,-56,-51,-46,-44,-47,-49,-51,-48,-48,-47,-47,-51,-52,-51,-52,-51,-54,-60,-64,-62,-56,-52,-51,-54,-57,-56,-55,-52,-51,-52,-48,-48,-52,-55,-52,-47,-48,-47,-46,-50,-51,-53,-52,-52,-57,-63,-60,-43,-24,-17,-23,-47,-63,-77,-73,-62,-58,-59,-60,-56,-53,-54,-57,-57,-51,-52,-54,-35,-21,-88,-198,-78,437,893,689,-111,-765,-769,-376,-117,-110,-130,-83,-58,-52,-48,-48,-50,-45,-44,-46,-52,-49,-42,-38,-43,-43,-35,-24,-15,-13,-21,-27,-35,-38,-36,-40,-45,-48,-52,-61,-80,-100,-115,-124,-129,-125,-116,-105,-95,-82,-71,-62,-58,-55,-49,-44,-42,-46,-52,-56,-57,-54,-55,-60,-57,-61,-66,-65,-56,-43,-32,-34,-49,-64,-75,-80,-72,-63,-59,-56,-58,-63,-63,-55,-50,-52,-56,-56,-51,-53,-59,-38,-24,-104,-200,-11,529,889,536,-307,-858,-725,-290,-55,-67,-97,-71,-53,-46,-43,-43,-36,-30,-30,-32,-38,-41,-40,-39,-36,-33,-29,-24,-17,-5,1,-1,-9,-16,1
person_abn25,-36,-30,-29,-32,-34,-41,-45,-45,-42,-39,-36,-38,-50,-79,-114,-142,-156,-169,-170,-159,-143,-122,-103,-84,-73,-65,-61,-60,-52,-49,-51,-58,-63,-66,-67,-67,-67,-69,-77,-85,-86,-79,-77,-77,-78,-75,-71,-69,-68,-67,-64,-65,-67,-65,-64,-68,-63,-49,-34,-29,-15,-1,5,0,-20,-51,-92,-131,-158,-157,-146,-130,-106,-87,-77,-75,-70,-59,-62,-71,17,269,488,386,-94,-731,-1144,-1058,-524,124,501,486,279,136,90,51,14,-7,-20,-27,-28,-28,-35,-37,-35,-25,-21,-24,-27,-28,-25,-26,-29,-33,-41,-39,-39,-38,-44,-56,-72,-95,-122,-149,-174,-187,-185,-171,-147,-128,-112,-97,-81,-70,-59,-50,-43,-38,-37,-38,-41,-50,-54,-55,-55,-63,-74,-83,-84,-84,-82,-80,-79,-75,-69,-62,-60,-62,-61,-60,-60,-56,-50,-34,-18,0,14,14,7,-8,-27,-62,-113,-154,-173,-162,-142,-118,-97,-77,-67,-63,-57,-46,-56,-63,42,308,498,329,-224,-877,-1203,-978,-360,252,533,459,256,140,93,46,18,1,-19,-29,-32,-36,-40,-44,-36,-31,-26,-24,-23,-25,-27,-28,-31,-35,-37,-32,-22,-24,-35,-51,-71,-100,-136,-164,-182,-179,-171,-157,-143,-125,-115,-104,-91,-74,-59,-50,-52,-54,-51,-37,-36,-44,-60,-77,-86,-89,-85,-71,-65,-69,-81,-86,-85,-80,-78,-79,-74,-59,-33,-22,-28,-29,-15,-5,-15,-37,-65,-94,-137,-169,-166,-133,-99,-87,-87,-84,-70,-56,-53,-67,-81,30,328,603,526,-45,-841,-1329,-1176,-520,171,508,455,259,140,87,52,23,-3,-23,-38,-45,-40,-41,-44,-52,-45,-38,-36,-30,-23,-17,-24,-39,-55,-56,-43,-31,-35,-50,-80,-115,-148,-171,-165,-135,-99,-74,-77,-106,-139,-142,-113,-71,-41,-24,-18,-28,-50,-57,-47,-46,-76,-29,235,509,345,-396,-1261,-1559,-1040,-120,567,735,530,256,122,95,58,5,-30,-45,-44,-40,-46,-49,-48,-53,-55,-53,-50,-48,-61,-79,-83,-76,-75,-80,-73,-52,-28,-34,-61,-89,-95,-103,-124,-148,-154,-130,-100,-83,-76,-72,-65,-62,-64,-64,-60,-53,-58,-68,-74,-72,-65,-66,-68,-74,-77,-82,-81,-70,-65,-66,-70,-70,-66,-65,-65,-62,-59,-60,-66,-69,-61,-52,-55,-67,-75,-68,-52,-51,-62,-66,-54,-44,-50,-65,-66,-53,-38,-17,8,2,-25,-42,-30,-20,-46,-103,-143,-143,-130,-105,-87,-74,-66,-50,-41,-60,-96,-15,248,483,384,-81,-707,-1138,-1108,-611,54,499,534,340,179,115,53,5,-12,-23,-30,-39,-40,-30,-19,-16,-24,-33,-39,-31,-14,-2,0,-2,0,0,3,-5,-9,-14,-32,-59,-87,-119,-155,-192,-213,-217,-212,-202,-179,-135,-104,-98,-89,-68,-42,-36,-43,-40,-32,-32,-39,-45,-53,-67,-75,-80,-79,-82,-90,-95,-91,-85,-82,-82,-74,-55,-33,-23,-20,-16,-18,-20,-28,-30,-47,-80,-129,-161,-162,-134,-98,-69,-64,-75,-81,-70,-54,-62,-79,34,310,502,344,-169,-781,-1158,-1044,-491,175,550,505,282,146,103,57,15,-4,-12,-22,-28,-30,-28,-29,-30,-33,-29,-19,-10,-15,-24,-24,-19,-25,-37,-46,-46,-43,-43,-46,-69,-114,-162,-199,-206,-194,-178,-163,-148,-131,-111,-93,-83,-69,-50,-37,-34,-38,-37,-28,-24,-31,-45,-60,-71,-75,-79,-82,-82,-81,-76,-72,-71,-59,-40,-31,-24,-14,-9,-19,-35,-27,-11,-29,-105,-167,-168,-130,-101,-95,-91,-81,-71,-71,-67,-59,-77,-55,143,428,486,150,-464,-1021,-1183,-829,-165,409,581,408,195,116,84,44,16,-1,-9,-17,-31,-43,-43,-37,-33,-28,-23,-11,-3,-5,-20,-25,-25,-25,-21,-14,-16,-29,-45,-60,-92,-143,-186,-199,-193,-190,-183,-160,-130,-110,-100,-87,-78,-67,-48,-35,-35,-42,-47,-40,-37,-50,-64,-73,-76,-83,-82,-78,-78,-79,-78,-73,-67,-57,-44,-24,-6,-2,-12,-19,-21,-28,-69,-126,-167,1
person_abn26,67,72,69,71,95,110,100,40,-55,-146,-173,-123,-73,-72,-87,-69,-48,-57,-79,-76,-37,3,21,27,34,40,33,21,2,-18,-56,-124,-225,-395,-469,-123,630,1273,1234,519,-310,-757,-794,-684,-565,-463,-379,-303,-245,-229,-213,-201,-188,-164,-123,-82,-62,-53,-39,-22,-17,-40,-57,-38,2,32,45,65,96,122,114,50,-44,-113,-120,-83,-63,-94,-135,-137,-114,-80,-55,-50,-55,-48,-19,7,18,11,-1,5,13,2,-30,-89,-152,-273,-414,-302,242,928,1188,773,13,-559,-730,-667,-554,-452,-372,-293,-216,-172,-160,-158,-158,-147,-135,-120,-107,-93,-76,-60,-43,-37,-36,-27,-14,2,22,62,99,118,88,22,-48,-91,-109,-119,-127,-141,-150,-154,-151,-129,-109,-95,-81,-64,-55,-48,-31,-10,4,1,-6,-14,-23,-40,-60,-103,-145,-200,-300,-311,6,575,975,851,287,-308,-629,-683,-589,-432,-301,-232,-188,-153,-128,-107,-100,-108,-114,-105,-95,-93,-90,-79,-62,-47,-44,-51,-51,-16,53,124,142,95,11,-50,-68,-61,-69,-86,-107,-112,-112,-109,-104,-94,-92,-82,-64,-43,-28,-23,-24,-29,-23,-9,-2,-10,-50,-113,-198,-317,-292,86,693,1052,844,230,-352,-630,-659,-585,-463,-354,-280,-226,-182,-156,-137,-119,-105,-103,-103,-91,-81,-68,-50,-27,-17,-26,-27,-10,19,51,86,124,129,85,8,-49,-61,-60,-78,-114,-133,-130,-116,-107,-95,-80,-71,-75,-67,-46,-24,-23,-26,-22,-17,-23,-33,-31,-32,-50,-79,-96,-91,-153,-293,-274,96,644,904,611,-10,-502,-651,-572,-420,-294,-235,-207,-172,-133,-102,-89,-89,-87,-70,-66,-73,-75,-65,-51,-53,-68,-69,-29,39,89,99,67,6,-36,-51,-50,-67,-103,-136,-146,-135,-106,-76,-63,-68,-56,-20,9,4,-13,-6,17,26,7,-12,-22,-21,-24,-26,-20,-18,-49,-192,-418,-420,31,681,959,607,-61,-548,-649,-543,-406,-291,-225,-177,-137,-120,-103,-82,-72,-68,-68,-72,-75,-80,-80,-77,-73,-66,-40,4,36,30,-5,-37,-40,-29,-34,-55,-74,-74,-69,-59,-52,-52,-55,-43,-23,-7,-9,-18,-20,-9,11,18,1,-23,-30,-21,-21,-12,24,62,48,-47,-149,-181,-151,-120,-133,-161,-171,-140,-108,-93,-87,-80,-71,-58,-47,-44,-46,-36,-23,-6,-3,-13,-29,-38,-46,-42,-37,-4,35,37,-31,-123,-182,-176,-141,-127,-143,-160,-162,-134,-105,-91,-93,-114,-140,-203,-355,-426,-111,560,1105,1058,454,-210,-524,-514,-396,-288,-213,-135,-48,-15,-66,-149,-204,-206,-178,-168,-178,-198,-198,-178,-145,-111,-88,-81,-74,-55,-24,2,22,52,80,86,54,26,18,18,-2,-41,-69,-53,-13,15,0,-46,-103,-133,-130,-109,-89,-79,-85,-94,-89,-71,-46,-35,-44,-49,-42,-36,-35,-48,-89,-147,-271,-416,-312,222,894,1173,831,172,-334,-511,-497,-433,-376,-351,-320,-259,-213,-198,-196,-196,-191,-188,-178,-164,-146,-121,-83,-51,-27,-8,10,29,60,93,116,118,111,99,72,37,12,10,31,42,4,-84,-160,-187,-169,-151,-146,-134,-107,-87,-80,-70,-54,-39,-21,-14,-10,-19,-16,-24,-58,-113,-239,-398,-316,201,896,1210,885,210,-323,-539,-566,-517,-418,-325,-260,-222,-215,-217,-208,-186,-164,-147,-143,-141,-121,-85,-53,-28,-8,8,18,35,55,80,98,102,88,69,65,81,91,53,-35,-123,-168,-176,-170,-161,-166,-166,-150,-123,-86,-61,-51,-40,-25,-16,-12,-14,-13,-4,7,2,-37,-85,-180,-421,-596,-280,553,1304,1305,569,-277,-696,-700,-559,-432,-372,-349,-298,-227,-187,-172,-163,-155,-145,-150,-148,-119,-84,-62,-45,-18,4,0,-15,-23,9,51,74,85,117,142,110,8,-98,-142,-131,-124,-146,-164,-157,-140,-115,-88,-62,-42,-29,-26,-19,-13,-12,-3,7,6,-24,-62,-97,-252,-537,-550,60,993,1454,1022,104,-576,-745,-639,-500,-401,-349,-292,1
person_abn27,-63,4,53,77,4,-44,-93,-111,-87,-109,-93,-104,-107,-79,-127,-87,-5,-24,-293,-795,-752,493,2432,3448,2445,302,-1419,-1925,-1621,-1296,-999,-716,-516,-356,-270,-177,-128,-101,-54,-69,-56,-65,-79,-58,-77,-58,-58,-69,-45,-71,-48,-42,-33,16,18,60,77,83,122,100,95,45,-31,-74,-147,-147,-138,-134,-95,-108,-84,-81,-90,-64,-87,-71,-71,-82,-56,-88,-65,-41,-32,-15,-58,-44,-24,-42,-45,-87,-64,-65,-91,-82,-118,-115,-121,-113,-54,-57,-45,-60,-84,-63,-83,-53,-44,-50,-17,-26,-2,-2,-28,-19,-54,-46,-58,-71,-8,36,99,90,19,-25,-90,-85,-75,-83,-70,-108,-86,-72,-99,-55,-15,-52,-382,-861,-676,730,2691,3436,2175,-16,-1599,-1903,-1566,-1240,-926,-669,-463,-334,-249,-163,-155,-114,-95,-90,-58,-80,-71,-70,-74,-41,-62,-53,-52,-59,-37,-63,-43,-13,3,43,20,43,70,85,102,34,-10,-53,-104,-105,-142,-119,-101,-101,-68,-79,-58,-60,-86,-71,-91,-59,-35,-34,1,-17,-3,-4,-25,-7,-27,-20,-22,-38,-13,-38,-35,-46,-70,-52,-69,-51,-43,-57,-36,-65,-56,-62,-81,-52,-67,-44,-45,-86,-92,-125,-73,-5,38,77,12,-41,-84,-100,-65,-87,-89,-101,-105,-70,-123,-100,-9,-19,-261,-768,-809,324,2204,3287,2415,362,-1322,-1827,-1510,-1188,-921,-651,-474,-329,-255,-173,-118,-102,-57,-67,-51,-47,-66,-33,-60,-56,-56,-70,-36,-54,-46,-41,-42,10,15,47,67,67,108,82,64,16,-58,-83,-137,-142,-138,-153,-116,-122,-95,-80,-84,-60,-107,-104,2,210,433,509,675,1074,1668,2215,2172,1451,365,-485,-717,-637,-640,-967,-1472,-1852,-2064,-1943,-1600,-1215,-855,-656,-489,-364,-299,-231,-228,-201,-191,-212,-196,-224,-196,-132,-58,47,54,44,31,44,140,212,320,416,475,558,547,516,435,297,193,61,-5,-39,-79,-59,-84,-72,-58,-72,-46,-63,-48,-60,-87,17,29,-154,-527,-595,365,1956,2882,2167,353,-1106,-1600,-1379,-1093,-908,-642,-462,-338,-235,-181,-107,-95,-71,-61,-78,-50,-55,-35,-31,-58,-36,-47,-28,-8,-9,32,23,38,53,50,85,55,21,-37,-119,-137,-175,-171,-162,-174,-126,-115,-76,-47,-56,-31,-53,-51,-46,-65,-41,-58,-50,-45,-63,-38,-64,-66,-56,-64,-25,-39,-37,-34,-62,-60,-73,-20,55,67,57,-38,-90,-105,-129,-102,-112,-101,-90,-98,-82,-117,-64,13,-96,-442,-882,-553,1008,2848,3382,1954,-229,-1653,-1910,-1550,-1255,-960,-661,-490,-346,-270,-185,-118,-120,-101,-122,-101,-71,-82,-55,-79,-80,-77,-96,-60,-74,-67,-35,-13,46,36,46,70,75,119,90,60,14,-63,-79,-117,-116,-100,-115,-88,-108,-103,-82,-95,-67,-91,-90,-74,-93,-68,-104,-102,-77,-84,-57,-86,-81,-54,-64,-39,-56,-42,-15,-28,-5,-35,-43,-32,-49,-23,-50,-52,-43,-74,-72,-109,-82,1,50,96,36,-31,-72,-110,-82,-95,-95,-96,-120,-86,-121,-99,-5,-18,-234,-711,-814,208,2047,3282,2628,639,-1150,-1830,-1593,-1264,-997,-711,-523,-362,-275,-197,-139,-133,-85,-78,-62,-43,-73,-50,-62,-52,-37,-68,-46,-64,-53,-27,-34,14,24,44,72,62,102,85,58,16,-58,-69,-112,-120,-111,-135,-97,-90,-69,-45,-71,-55,-78,-78,-63,-82,-56,-76,-70,-44,-57,-31,-51,-46,-28,-50,-25,-47,-53,-46,-70,-40,-48,-47,-37,-67,-46,-59,-58,-48,-73,-48,-69,-78,-81,-106,-46,4,59,80,11,-29,-89,-100,-82,-103,-84,-107,-103,-84,-123,-55,11,-60,-412,-867,-570,915,2782,3374,2007,-135,-1611,-1873,-1533,-1232,-923,-648,-453,-318,-258,-168,-132,-94,-56,-69,-46,-60,-64,-48,-68,-37,-53,-60,-47,-67,-27,-25,-1,41,38,79,84,97,117,73,48,-35,-92,-104,-139,-119,-137,-120,-85,-91,-61,-76,-78,-60,-83,-55,-71,-75,-60,-76,-38,-44,-45,-32,-62,-33,-34,1
person_abn28,-8,-13,-22,-6,24,51,69,80,87,83,70,55,37,-4,-63,-129,-181,-216,-226,-221,-204,-177,-150,-118,-94,-92,-92,-80,-68,-75,-104,-117,-103,-73,-59,-60,-59,-58,-66,-65,-73,-87,-76,-9,84,132,89,-5,-76,-97,-96,-96,-99,-89,-102,-123,-55,38,-100,-623,-1057,-320,1821,3765,3580,1266,-1253,-2327,-2019,-1411,-1055,-788,-535,-362,-239,-154,-104,-74,-58,-49,-40,-29,-30,-33,-20,4,28,44,61,85,95,92,88,85,65,22,-29,-77,-107,-133,-162,-182,-178,-154,-132,-112,-94,-79,-72,-68,-61,-55,-54,-46,-31,-25,-27,-27,-21,-20,-27,-36,-53,-83,-88,-27,72,131,102,27,-24,-48,-56,-59,-63,-62,-76,-98,-34,74,-17,-507,-1035,-527,1494,3633,3828,1725,-901,-2230,-2082,-1472,-1074,-800,-543,-362,-235,-145,-91,-48,-21,-12,-9,-2,12,23,33,42,46,48,57,84,120,151,144,108,76,58,26,-26,-81,-123,-151,-165,-165,-143,-112,-85,-68,-57,-47,-37,-33,-32,-29,-20,-8,1,5,3,1,-4,-1,2,-10,-40,-81,-87,-26,75,142,116,24,-57,-82,-70,-63,-61,-51,-61,-93,-56,56,3,-453,-1033,-672,1249,3504,3948,2002,-687,-2174,-2128,-1533,-1134,-857,-582,-393,-265,-156,-76,-28,-20,-28,-24,-7,9,10,14,23,37,34,32,64,120,155,142,105,75,46,7,-44,-81,-111,-137,-159,-169,-158,-129,-105,-87,-77,-67,-54,-45,-42,-48,-59,-53,-26,6,15,6,-2,-2,-7,-15,-25,-46,-70,-67,-11,71,122,96,11,-68,-101,-94,-83,-92,-92,-101,-110,-43,41,-113,-656,-1078,-257,1994,3944,3643,1215,-1317,-2335,-2009,-1415,-1054,-770,-515,-355,-229,-137,-94,-72,-50,-17,12,10,-8,-9,14,39,49,51,59,83,115,132,122,92,66,41,3,-53,-113,-166,-192,-185,-156,-127,-115,-112,-97,-69,-43,-46,-63,-56,-40,-72,-82,75,428,760,889,909,1075,1495,1973,2043,1330,55,-1003,-1256,-866,-514,-621,-1082,-1595,-1941,-1989,-1732,-1331,-970,-722,-571,-462,-370,-299,-252,-220,-200,-168,-125,-67,-5,60,121,205,295,380,469,568,652,672,609,492,362,236,100,-25,-107,-141,-131,-114,-109,-107,-100,-90,-83,-76,-69,-55,-45,-47,-60,-73,-75,-65,-56,-60,-70,-68,-59,-50,-62,-71,-63,-45,-42,-62,-72,-57,-28,-21,-37,-53,-54,-52,-52,-58,-56,-54,-56,-67,-84,-101,-73,9,90,105,49,-22,-64,-80,-89,-91,-85,-93,-123,-84,25,-10,-414,-988,-784,964,3260,3963,2218,-494,-2136,-2178,-1564,-1142,-874,-600,-418,-307,-215,-152,-104,-78,-66,-49,-22,3,5,-10,-8,12,34,45,59,88,120,130,118,105,107,97,62,17,-30,-76,-112,-139,-154,-157,-148,-123,-97,-96,-104,-95,-77,-67,-70,-59,-46,-39,-49,-60,-61,-52,-44,-40,-57,-85,-84,-22,77,132,100,9,-74,-113,-108,-106,-114,-105,-103,-112,-51,17,-158,-728,-1141,-263,2014,3877,3436,979,-1424,-2281,-1904,-1364,-1057,-784,-532,-383,-277,-201,-149,-111,-89,-77,-75,-70,-64,-57,-50,-36,-27,-18,-7,16,39,43,26,0,-14,-26,-59,-116,-183,-228,-246,-249,-234,-205,-167,-145,-146,-157,-157,-144,-113,-92,-78,-83,-93,-96,-87,-68,-52,-50,-69,-96,-128,-158,-135,-46,55,98,58,-32,-113,-159,-164,-144,-116,-104,-137,-158,-72,23,-180,-795,-1161,-160,2128,3820,3187,701,-1587,-2342,-1957,-1447,-1136,-828,-556,-398,-297,-216,-159,-118,-96,-86,-89,-97,-87,-40,-12,-26,-58,-63,-37,-2,30,40,22,-20,-51,-67,-84,-123,-178,-232,-276,-299,-275,-225,-182,-165,-164,-164,-151,-131,-108,-97,-104,-125,-134,-116,-78,-55,-66,-104,-118,-118,-126,-138,-96,3,78,60,-19,-84,-113,-129,-150,-158,-133,-119,-143,-114,-36,-147,-646,-1076,-371,1695,3539,3306,1094,-1230,-2188,-1940,-1439,-1099,-797,-541,-401,-309,-221,-156,-115,-95,-80,-67,-42,-15,-8,-23,-38,-22,1
person_abn29,-57,-245,-621,-763,-62,1427,2627,2420,860,-880,-1729,-1642,-1230,-877,-612,-427,-308,-232,-183,-141,-112,-111,-119,-131,-144,-158,-163,-158,-159,-166,-177,-176,-153,-119,-86,-54,-8,55,116,153,150,121,94,80,69,47,11,-34,-59,-60,-42,-23,-26,-53,-85,-101,-88,-70,-54,-51,-53,-54,-46,-35,-37,-58,-68,-39,3,12,-17,-59,-83,-90,-101,-107,-84,-17,53,82,43,-29,-86,-100,-89,-72,-62,-67,-70,-79,-99,-91,-63,-118,-373,-756,-748,197,1736,2625,1981,251,-1293,-1834,-1590,-1159,-812,-580,-443,-342,-243,-171,-144,-145,-145,-129,-112,-98,-98,-103,-108,-103,-93,-90,-96,-96,-66,-16,31,69,92,114,127,126,103,61,20,-15,-40,-57,-69,-84,-98,-101,-87,-70,-68,-88,-107,-110,-88,-58,-36,-27,-35,-57,-81,-92,-77,-56,-50,-62,-75,-89,-100,-104,-104,-108,-114,-85,-15,60,88,64,28,7,-4,-18,-37,-58,-73,-79,-100,-101,-28,13,-150,-552,-786,-131,1445,2795,2652,1045,-781,-1683,-1599,-1174,-823,-562,-401,-311,-228,-158,-123,-106,-100,-89,-76,-82,-99,-106,-98,-90,-86,-80,-67,-52,-41,-19,7,29,55,91,129,150,145,126,103,81,58,33,5,-28,-45,-41,-35,-41,-59,-66,-57,-46,-52,-91,-140,-167,-144,-89,-36,-7,-6,-19,-20,12,71,119,122,71,6,-41,-77,-109,-101,-35,56,107,86,0,-90,-133,-126,-99,-92,-120,-140,-141,-144,-116,-70,-128,-402,-759,-635,431,1948,2664,1860,150,-1239,-1714,-1601,-1346,-1001,-553,-146,98,178,174,121,22,-94,-161,-146,-71,4,17,-35,-108,-161,-197,-235,-268,-212,-51,144,260,286,279,278,257,200,136,101,87,64,29,2,-6,-18,-49,-99,-133,-138,-138,-144,-131,-63,54,191,349,626,1109,1758,2338,2455,1844,738,-270,-764,-842,-927,-1273,-1770,-2157,-2262,-2069,-1716,-1350,-1001,-678,-431,-326,-343,-387,-359,-266,-182,-137,-114,-77,-17,45,88,117,154,215,313,427,528,608,662,696,687,626,516,375,245,145,72,13,-33,-63,-79,-84,-93,-95,-95,-93,-95,-112,-140,-166,-170,-168,-164,-162,-155,-156,-171,-188,-186,-161,-143,-169,-212,-242,-241,-224,-215,-223,-232,-243,-245,-237,-218,-196,-177,-176,-183,-191,-178,-157,-139,-131,-129,-130,-135,-152,-167,-170,-158,-134,-111,-95,-80,-67,-67,-64,-48,-33,-46,-70,-65,-8,47,39,-25,-94,-128,-127,-122,-120,-112,-102,-117,-94,-17,-41,-315,-743,-744,315,2020,2967,2234,395,-1154,-1643,-1376,-997,-714,-474,-316,-226,-164,-135,-114,-89,-67,-53,-46,-40,-30,-28,-30,-39,-54,-71,-83,-74,-50,-28,-25,-21,9,59,105,132,142,147,130,70,-16,-91,-108,-82,-55,-51,-71,-69,-14,78,150,169,137,97,64,18,-27,-52,-67,-79,-86,-75,-49,-23,-18,-29,-44,-67,-79,-51,11,60,45,-32,-109,-134,-120,-104,-103,-116,-127,-132,-157,-176,-136,-97,-199,-514,-792,-398,925,2372,2687,1473,-352,-1554,-1714,-1325,-920,-637,-453,-326,-222,-164,-140,-111,-62,-23,-27,-64,-90,-94,-83,-73,-69,-81,-105,-117,-97,-47,7,43,65,83,110,141,154,129,81,39,20,11,-2,-24,-45,-54,-58,-65,-71,-78,-77,-68,-62,-58,-47,-44,-48,-53,-64,-78,-99,-112,-104,-88,-83,-83,-98,-115,-99,-40,23,45,1,-61,-106,-129,-148,-154,-151,-148,-138,-143,-136,-70,-13,-107,-438,-767,-429,895,2416,2783,1542,-370,-1637,-1821,-1440,-1040,-740,-523,-384,-282,-207,-160,-130,-115,-105,-103,-106,-120,-133,-135,-125,-117,-118,-124,-113,-80,-36,3,35,61,83,109,136,138,117,83,48,22,-11,-42,-60,-72,-81,-92,-101,-108,-106,-102,-98,-94,-94,-97,-102,-103,-93,-69,-50,-44,-48,-61,-79,-102,-128,-142,-121,-56,25,63,34,-35,-83,-86,-68,-61,-65,-86,-86,-85,-87,-45,10,-70,-384,-761,-576,654,2283,2899,1840,-70,-1450,-1721,-1356,-968,-687,-470,1
person_abn30,655,-909,-1528,-1270,-834,-558,-387,-268,-189,-147,-120,-104,-98,-107,-93,-57,-36,-42,-49,-34,-17,-28,-56,-69,-67,-58,-46,-39,-32,-28,-24,-23,-16,-17,-24,-32,-47,-60,-67,-75,-75,-62,-51,-45,-40,-50,-62,-64,-56,-51,-64,-75,-74,-68,-69,-61,-42,-36,-49,-60,-46,-39,-56,-64,-54,-52,-67,-89,-88,-61,-35,-41,-55,-69,-76,-64,-56,-59,-58,-58,-59,-64,-67,-63,-51,-43,-56,-65,-55,-42,-44,-61,-67,-58,-56,-52,-43,-41,-48,-56,-71,-81,-60,-29,-6,9,11,5,-24,-69,-91,-87,-98,-118,-88,15,28,-272,-544,-61,1202,2148,1710,183,-1136,-1447,-1105,-736,-498,-337,-241,-195,-152,-86,-45,-52,-65,-63,-52,-51,-61,-62,-51,-46,-42,-28,-32,-68,-89,-83,-61,-40,-34,-29,-20,-36,-72,-81,-55,-32,-40,-69,-78,-57,-40,-48,-61,-64,-70,-77,-64,-37,-27,-53,-70,-62,-46,-40,-59,-74,-71,-58,-47,-61,-79,-86,-74,-61,-59,-56,-60,-68,-82,-81,-67,-60,-70,-67,-56,-46,-41,-42,-48,-64,-87,-77,-57,-51,-56,-57,-48,-48,-59,-64,-55,-50,-53,-58,-85,-104,-75,-36,-25,-33,-21,4,10,-15,-53,-74,-95,-95,-69,-52,-65,-48,37,-45,-393,-461,337,1569,2013,1086,-395,-1244,-1204,-873,-621,-431,-283,-196,-150,-112,-72,-61,-74,-81,-62,-42,-38,-37,-28,-22,-31,-49,-67,-65,-52,-34,-30,-23,-18,-39,-69,-99,-100,-67,-33,-27,-50,-61,-49,-41,-46,-60,-64,-50,-42,-40,-48,-54,-61,-50,-18,-14,-48,-92,-103,-58,-12,-35,-96,-102,-60,-21,-25,-69,-100,-95,-58,-10,-6,-65,-140,-142,-33,166,395,584,774,1074,1431,1531,1075,197,-614,-990,-994,-952,-1065,-1235,-1270,-1090,-805,-564,-416,-299,-193,-129,-110,-128,-168,-194,-197,-192,-190,-190,-185,-177,-168,-152,-126,-83,-7,105,214,269,286,316,361,355,266,166,123,115,83,13,-54,-76,-82,-88,-80,-48,-33,-47,-56,-46,-30,-38,-57,-62,-58,-49,-46,-52,-56,-60,-66,-71,-77,-82,-81,-62,-42,-33,-51,-72,-73,-58,-59,-69,-63,-58,-81,-110,-91,-44,-43,-78,-111,-116,-90,-52,-20,-20,-60,-103,-106,-65,-46,-57,-77,-91,-83,-60,-49,-61,-79,-69,-46,-33,-52,-74,-64,-55,-69,-93,-101,-91,-72,-71,-78,-72,-58,-40,-25,-38,-65,-64,-34,-9,2,-18,-37,-33,-31,-49,-50,-24,-16,-45,-97,-121,-96,-67,-60,-52,-5,-43,-325,-510,-13,1059,1729,1228,-46,-1019,-1173,-858,-559,-380,-289,-240,-173,-95,-59,-70,-82,-78,-59,-30,3,29,17,-47,-106,-91,-36,-27,-62,-80,-65,-50,-68,-87,-79,-72,-83,-68,-29,-1,-1,-6,-10,-20,-38,-49,-39,-20,-20,-38,-45,-45,-45,-63,-74,-68,-55,-64,-96,-128,-115,-79,-51,-47,-59,-63,-41,-14,-1,-14,-41,-62,-64,-73,-96,-111,-112,-109,-107,-111,-98,-74,-48,-29,-23,-39,-72,-101,-107,-79,-57,-66,-68,-44,-5,8,-18,-60,-80,-85,-84,-86,-88,-82,-75,-35,-63,-297,-415,91,1068,1601,1055,-114,-918,-961,-664,-444,-297,-189,-135,-123,-122,-108,-92,-90,-88,-69,-41,-28,-35,-33,-3,40,55,39,1,-38,-67,-117,-202,-285,-303,-247,-159,-65,29,120,172,146,70,9,-7,-4,-23,-72,-109,-102,-78,-76,-89,-89,-76,-73,-103,-146,-150,-95,-42,-42,-70,-75,-52,-27,-29,-51,-58,-40,-12,0,-12,-43,-56,-59,-77,-102,-112,-119,-130,-130,-112,-93,-82,-92,-93,-74,-51,-27,-19,-41,-78,-88,-91,-110,-126,-106,-84,-85,-106,-107,-68,-13,-111,-358,-324,329,1165,1326,565,-415,-849,-735,-522,-387,-247,-119,-33,18,51,42,5,-24,-1,35,46,39,64,128,171,145,65,-9,-44,-47,-44,-44,-49,-64,-80,-95,-112,-137,-147,-123,-117,-171,-251,-254,-168,-89,-82,-116,-120,-89,-69,-64,-55,-34,-13,-15,-37,-63,-82,-90,-95,-112,-140,-147,1
person_abn31,-49,-52,-55,-58,-59,-55,-49,-46,-49,-55,-59,-54,-50,-47,-46,-53,-57,-60,-59,-53,-47,-50,-59,-66,-57,-50,-48,-54,-58,-54,-45,-46,-52,-57,-53,-51,-50,-52,-57,-62,-66,-66,-48,-14,7,12,-1,-30,-57,-80,-87,-78,-73,-82,-76,-11,-17,-297,-522,-4,1169,1888,1287,-134,-1123,-1156,-755,-495,-381,-281,-200,-142,-107,-88,-78,-59,-45,-40,-44,-40,-28,-19,-23,-29,-35,-41,-44,-45,-48,-52,-63,-75,-76,-69,-63,-58,-62,-72,-75,-70,-69,-74,-77,-74,-66,-57,-51,-49,-54,-55,-45,-44,-48,-60,-61,-53,-48,-52,-60,-71,-66,-51,-40,-48,-58,-68,-70,-69,-61,-55,-51,-55,-58,-55,-51,-52,-57,-60,-60,-63,-61,-51,-49,-62,-70,-63,-62,-58,-39,-13,1,-5,-24,-47,-76,-93,-88,-75,-76,-88,-35,0,-217,-509,-193,910,1848,1567,221,-985,-1248,-897,-572,-418,-311,-226,-159,-113,-89,-72,-65,-62,-54,-44,-39,-44,-41,-38,-37,-43,-44,-44,-45,-56,-71,-78,-81,-78,-74,-68,-59,-54,-46,-43,-48,-54,-61,-57,-53,-51,-50,-45,-38,-46,-53,-50,-43,-42,-48,-52,-53,-46,-41,-47,-49,-51,-53,-52,-57,-55,-51,-47,-54,-61,-57,-52,-45,-43,-45,-43,-45,-49,-51,-50,-44,-42,-45,-52,-61,-63,-57,-60,-57,-42,-16,1,5,-11,-34,-58,-77,-82,-70,-68,-75,-42,16,-119,-440,-361,524,1580,1679,591,-696,-1193,-951,-613,-441,-326,-231,-169,-126,-100,-82,-67,-63,-58,-48,-38,-35,-35,-37,-39,-37,-37,-43,-51,-56,-55,-55,-59,-72,-85,-82,-66,-55,-54,-59,-65,-67,-63,-57,-52,-51,-52,-50,-45,-45,-48,-53,-56,-53,-46,-45,-46,-49,-50,-51,-54,-53,-49,-45,-47,-51,-55,-53,-53,-52,-53,-58,-61,-49,-44,-71,-98,-45,108,331,536,681,852,1154,1501,1524,936,-27,-786,-1009,-941,-995,-1245,-1436,-1356,-1068,-762,-543,-411,-306,-233,-191,-174,-169,-176,-186,-200,-217,-222,-211,-181,-141,-95,-45,12,78,147,217,281,334,370,372,343,295,238,172,100,40,-1,-30,-48,-58,-52,-44,-44,-46,-50,-50,-44,-42,-47,-58,-61,-54,-47,-52,-59,-59,-55,-54,-53,-54,-55,-56,-60,-60,-62,-59,-56,-57,-60,-63,-62,-56,-53,-54,-59,-54,-50,-50,-58,-58,-55,-52,-53,-53,-53,-56,-57,-55,-53,-56,-58,-51,-44,-45,-57,-72,-76,-66,-59,-57,-47,-20,-1,1,-14,-41,-68,-85,-84,-76,-74,-65,-8,-22,-297,-500,14,1127,1776,1180,-158,-1062,-1079,-722,-493,-377,-267,-187,-138,-113,-100,-83,-69,-57,-44,-36,-31,-36,-41,-39,-38,-41,-45,-47,-45,-45,-52,-59,-65,-70,-71,-67,-56,-49,-48,-57,-58,-57,-58,-64,-68,-61,-53,-45,-46,-52,-50,-52,-49,-49,-52,-54,-56,-55,-54,-56,-58,-57,-57,-57,-58,-59,-58,-58,-56,-57,-55,-52,-48,-44,-47,-51,-51,-55,-64,-71,-67,-63,-57,-40,-16,3,-3,-26,-47,-65,-74,-70,-68,-71,-76,-37,18,-157,-489,-336,648,1692,1664,468,-804,-1216,-921,-589,-430,-323,-225,-155,-112,-90,-80,-72,-59,-53,-49,-42,-30,-23,-31,-46,-47,-39,-34,-45,-58,-62,-69,-77,-87,-87,-74,-62,-58,-53,-52,-60,-75,-79,-71,-57,-52,-54,-55,-56,-57,-57,-53,-51,-51,-55,-55,-52,-54,-58,-61,-61,-55,-52,-55,-56,-59,-55,-54,-60,-64,-60,-50,-48,-53,-58,-55,-43,-49,-55,-59,-58,-56,-61,-73,-75,-48,-9,7,-2,-28,-41,-63,-80,-82,-78,-75,-76,-36,14,-152,-459,-301,629,1600,1545,412,-775,-1148,-872,-559,-404,-303,-222,-162,-118,-91,-76,-64,-54,-47,-42,-37,-38,-37,-41,-42,-44,-46,-47,-47,-52,-62,-72,-82,-84,-81,-68,-56,-49,-52,-55,-59,-60,-66,-65,-55,-50,-54,-56,-59,-55,-51,-44,-42,-44,-51,-54,-50,-48,-50,-55,-52,-49,-48,-54,-59,-57,-58,-55,-54,-54,-53,-58,-56,1
person_abn32,-423,-319,-216,-148,-125,-113,-92,-63,-42,-35,-34,-30,-31,-27,-26,-27,-32,-36,-29,-21,-14,-1,15,26,32,32,24,13,-11,-55,-107,-154,-186,-201,-200,-178,-144,-116,-98,-86,-80,-74,-63,-52,-52,-59,-56,-46,-46,-55,-58,-55,-51,-57,-64,-64,-50,-37,-37,-45,-53,-54,-43,-47,-58,-67,-68,-65,-62,-55,-49,-40,-37,-48,-59,-63,-60,-49,-39,-49,-73,-84,-80,-79,-75,-43,2,22,4,-28,-46,-57,-74,-99,-104,-81,-70,-78,-93,-50,16,-164,-492,-251,893,2014,1848,382,-1075,-1469,-1060,-639,-447,-329,-227,-155,-111,-93,-73,-53,-42,-42,-47,-46,-40,-40,-46,-45,-37,-32,-24,-11,4,12,10,4,1,4,12,11,-5,-35,-76,-123,-168,-189,-191,-170,-146,-125,-106,-88,-81,-73,-65,-57,-55,-52,-51,-47,-47,-49,-51,-55,-57,-53,-46,-49,-57,-61,-59,-56,-47,-38,-46,-62,-70,-62,-51,-49,-53,-59,-54,-47,-45,-41,-40,-42,-45,-49,-56,-63,-66,-61,-54,-41,-37,-42,-51,-57,-64,-63,-56,-53,-57,-49,-24,-3,-2,-23,-43,-49,-53,-60,-67,-71,-82,-85,-84,-57,14,-114,-443,-336,661,1821,1863,564,-911,-1410,-1039,-609,-428,-326,-223,-150,-123,-110,-75,-22,-5,-36,-68,-68,-46,-31,-27,-27,-28,-23,-18,-17,-23,-17,-1,16,20,11,-5,-7,-3,-20,-68,-128,-167,-175,-169,-160,-139,-115,-101,-91,-84,-81,-71,-57,-51,-52,-47,-45,-52,-55,-51,-47,-52,-64,-65,-47,-38,-43,-45,-57,-79,-84,-56,-12,3,-42,-65,28,192,314,402,487,605,820,1133,1315,1004,139,-807,-1249,-1132,-892,-899,-1070,-1112,-897,-570,-346,-283,-264,-211,-131,-70,-57,-81,-109,-122,-133,-144,-151,-155,-154,-151,-134,-90,-37,23,73,129,192,255,297,313,303,276,227,172,112,59,4,-50,-90,-113,-112,-106,-102,-97,-82,-63,-50,-53,-64,-71,-71,-53,-35,-42,-60,-66,-57,-48,-56,-57,-51,-48,-61,-73,-72,-70,-63,-51,-51,-65,-80,-75,-54,-45,-49,-54,-60,-60,-68,-73,-69,-59,-43,-33,-37,-48,-66,-82,-87,-65,-40,-37,-60,-66,-52,-45,-62,-77,-74,-57,-50,-53,-59,-63,-61,-63,-61,-58,-57,-57,-61,-57,-51,-56,-72,-81,-62,-40,-37,-48,-56,-59,-59,-58,-53,-47,-46,-51,-52,-57,-58,-61,-61,-60,-62,-62,-72,-79,-74,-51,-15,0,2,-12,-30,-54,-75,-88,-89,-77,-69,-71,-76,-73,-19,-53,-318,-419,203,1259,1644,808,-495,-1147,-957,-583,-419,-332,-228,-158,-130,-113,-92,-72,-57,-48,-43,-42,-41,-30,-23,-24,-32,-36,-31,-25,-21,-25,-25,-27,-25,-22,-21,-28,-42,-51,-38,-38,-60,-97,-127,-133,-125,-116,-114,-110,-102,-91,-82,-77,-74,-68,-56,-52,-50,-49,-54,-59,-61,-56,-54,-58,-62,-64,-60,-55,-55,-61,-70,-71,-66,-64,-64,-62,-58,-58,-51,-40,-35,-47,-64,-68,-59,-57,-57,-57,-53,-56,-57,-55,-49,-50,-56,-69,-79,-84,-64,-37,-14,-10,-14,-25,-45,-67,-74,-78,-79,-76,-72,-69,-68,-47,-16,-135,-363,-212,569,1316,1129,90,-822,-929,-554,-320,-296,-243,-154,-112,-93,-73,-58,-51,-45,-41,-38,-38,-42,-38,-32,-23,-14,-12,-16,-24,-23,-17,-12,-10,-12,-22,-31,-38,-41,-51,-76,-116,-143,-163,-174,-172,-145,-111,-88,-83,-78,-73,-65,-60,-56,-56,-58,-62,-55,-43,-45,-58,-66,-60,-48,-44,-53,-66,-69,-65,-59,-49,-48,-56,-66,-61,-47,-40,-49,-59,-62,-52,-47,-48,-53,-63,-74,-70,-60,-54,-60,-63,-54,-44,-42,-51,-61,-66,-74,-76,-65,-41,-15,1,2,-17,-49,-76,-81,-75,-70,-72,-78,-85,-87,-57,6,-126,-447,-329,636,1728,1738,501,-866,-1315,-970,-584,-424,-326,-233,-165,-118,-91,-73,-62,-53,-46,-37,-37,-45,-47,-43,-29,-19,-18,-24,-26,-30,-31,-24,-10,-8,-18,-31,-32,-25,-37,-67,-99,-117,1
person_abn33,463,738,736,702,625,517,443,401,368,347,320,301,303,304,296,303,330,359,364,344,306,249,159,63,-7,-47,-85,-124,-157,-177,-175,-167,-159,-158,-157,-153,-139,-121,-105,-92,-82,-71,-68,-68,-63,-52,-41,-41,-41,-32,-14,-15,-45,-73,-71,-53,-55,-76,-89,-67,-18,43,95,126,138,155,189,236,283,328,375,449,535,556,525,697,1150,1374,844,-130,-660,-308,449,946,1061,1042,997,907,826,793,757,702,625,543,470,408,349,299,273,268,272,273,259,226,177,124,75,25,-21,-65,-97,-119,-126,-119,-103,-76,-44,-13,7,14,20,20,0,-24,-33,-25,-20,-23,-38,-43,-40,-32,-27,-30,-43,-45,-40,-29,-12,-1,2,8,10,-6,-34,-68,-93,-124,-153,-176,-187,-198,-205,-253,-367,-369,4,478,304,-713,-1725,-1821,-1051,-266,25,-7,-66,-141,-248,-320,-361,-399,-417,-421,-413,-399,-384,-372,-352,-323,-283,-244,-236,-277,-357,-450,-541,-631,-707,-767,-799,-820,-836,-850,-840,-827,-807,-787,-753,-733,-731,-741,-742,-726,-721,-736,-751,-763,-770,-773,-763,-751,-763,-813,-872,-907,-911,-918,-931,-947,-945,-906,-873,-861,-861,-858,-848,-837,-815,-788,-770,-742,-697,-705,-805,-733,-241,223,-121,-1204,-2025,-1819,-927,-224,-52,-126,-202,-291,-374,-404,-429,-450,-449,-430,-412,-392,-369,-329,-293,-268,-261,-254,-264,-299,-360,-429,-489,-535,-581,-625,-655,-673,-676,-660,-629,-601,-569,-534,-497,-474,-482,-494,-489,-468,-458,-464,-467,-452,-427,-411,-407,-402,-400,-397,-396,-389,-386,-393,-397,-395,-376,-341,-311,-302,-313,-326,-328,-336,-345,-354,-351,-322,-281,-305,-396,-279,239,611,115,-1024,-1728,-1353,-409,214,282,172,92,-5,-95,-154,-204,-239,-252,-250,-230,-202,-167,-132,-90,-42,1,11,3,-33,-81,-141,-206,-266,-305,-326,-335,-337,-325,-305,-270,-244,-214,-184,-150,-136,-135,-130,-108,-69,-22,41,133,250,348,361,383,553,640,248,-610,-1384,-1566,-1211,-746,-434,-226,-75,-22,-33,-75,-130,-166,-186,-211,-223,-211,-184,-188,-223,-253,-228,-142,-35,49,112,159,183,163,123,89,52,-5,-73,-117,-124,-110,-103,-107,-110,-108,-99,-89,-81,-85,-87,-73,-60,-57,-58,-67,-69,-68,-57,-43,-34,-46,-59,-56,-42,-37,-43,-52,-55,-49,-42,-40,-44,-45,-38,-34,-37,-41,-35,-31,-41,-44,0,87,157,139,70,10,-6,-15,-45,-70,-64,-38,-24,-39,-63,-87,-86,-78,-106,-140,-161,-209,-270,-111,473,987,551,-783,-1830,-1642,-591,272,500,416,338,248,126,69,43,14,1,-8,-1,13,30,52,85,119,157,200,233,226,159,50,-54,-125,-166,-204,-239,-269,-280,-279,-261,-234,-209,-183,-145,-103,-83,-78,-92,-113,-102,-51,20,57,18,-65,-123,-140,-135,-125,-113,-109,-115,-124,-119,-87,-40,-22,-40,-75,-88,-72,-56,-69,-91,-86,-103,-209,-285,15,645,807,-28,-1219,-1609,-935,8,455,428,318,246,149,76,32,-12,-40,-50,-50,-40,-13,35,83,120,130,138,143,118,18,-128,-242,-281,-279,-289,-310,-306,-286,-283,-270,-208,-132,-106,-132,-142,-112,-73,-69,-81,-88,-98,-89,-29,61,111,95,52,33,24,-5,-50,-71,-51,-17,2,-3,-30,-55,-74,-86,-81,-82,-81,-68,-81,-177,-205,169,730,626,-434,-1568,-1679,-774,189,547,477,356,218,32,-93,-129,-109,-79,-66,-55,-15,37,70,92,125,175,204,204,178,124,50,-24,-83,-135,-214,-296,-331,-309,-273,-259,-251,-207,-147,-101,-61,0,102,236,418,581,620,672,894,1051,700,-247,-1281,-1776,-1603,-1147,-741,-448,-263,-164,-113,-121,-151,-159,-166,-173,-163,-149,-143,-131,-82,4,99,172,209,237,277,306,296,244,168,100,47,3,-47,-82,-91,-75,-56,-45,-40,-35,-36,-45,-39,-38,-48,-54,-54,-53,-56,-61,-54,-41,-30,-40,-53,-62,-76,-89,-104,-110,-114,-109,-93,-77,-70,-74,-77,1
person_abn34,-75,-86,-44,-5,-150,-306,61,865,1172,369,-922,-1502,-1031,-236,175,230,177,85,17,8,1,-13,-32,-42,-39,-28,-23,-29,-36,-33,-20,-8,2,5,21,38,36,21,-1,-11,-17,-13,-23,-52,-99,-150,-188,-210,-211,-192,-164,-138,-119,-111,-98,-84,-71,-61,-51,-41,-38,-50,-58,-62,-59,-58,-54,-54,-65,-78,-76,-60,-50,-55,-61,-56,-50,-55,-54,-36,-19,-21,-32,-38,-40,-52,-79,-98,-101,-90,-76,-67,-66,-72,-58,-8,-56,-251,-193,395,958,690,-363,-1243,-1198,-508,67,244,216,128,49,25,8,-28,-47,-43,-31,-36,-47,-48,-43,-38,-34,-25,-21,-22,-18,7,19,2,-19,-22,-8,-4,-18,-42,-68,-114,-164,-188,-184,-174,-156,-140,-121,-103,-95,-90,-82,-68,-61,-54,-47,-46,-54,-60,-63,-59,-58,-62,-65,-66,-64,-68,-66,-59,-58,-57,-51,-41,-34,-32,-32,-39,-55,-62,-54,-49,-69,-97,-109,-103,-88,-78,-74,-73,-77,-49,5,-97,-287,-60,662,1086,488,-722,-1417,-1093,-327,140,231,189,101,23,1,-2,-9,-13,-18,-25,-34,-38,-39,-39,-31,-21,-8,-1,7,8,14,19,16,7,-4,-11,-18,-28,-53,-87,-121,-160,-188,-194,-181,-155,-124,-99,-84,-85,-84,-78,-74,-80,-77,-65,-60,-68,-79,-79,-76,-77,-72,-62,-55,-64,-81,-90,-81,-69,-60,-58,-55,-47,-37,-30,-51,-78,-80,-51,-31,-48,-85,-102,-97,-84,-80,-75,-70,-62,-9,9,-171,-278,152,875,974,74,-1063,-1377,-776,-51,248,242,159,74,32,15,-12,-22,-22,-30,-46,-53,-47,-36,-34,-30,-22,-7,3,3,7,23,31,17,-7,-8,3,0,-32,-81,-124,-167,-202,-213,-192,-164,-153,-147,-130,-100,-76,-71,-71,-67,-66,-73,-84,-90,-82,-69,-72,-82,-67,-33,-17,-30,-60,-70,-68,-68,-29,-9,-156,-264,110,759,843,5,-1053,-1345,-762,-44,269,274,195,97,45,27,-3,-26,-31,-36,-44,-46,-43,-33,-24,-21,-21,-16,-10,-6,3,9,6,0,-1,11,11,-15,-70,-134,-181,-202,-196,-179,-163,-147,-121,-88,-68,-66,-75,-88,-95,-105,-110,-99,-85,-79,-91,-103,-107,-101,-92,-83,-82,-81,-77,-69,-62,-49,-43,-52,-58,-53,-42,-37,-49,-64,-70,-68,-71,-70,-65,-61,-60,-58,-59,-67,-75,-67,-48,-41,-50,-61,-67,-79,-94,-88,-63,-53,-66,-95,-108,-107,-98,-91,-94,-76,-30,-85,-246,-128,455,891,502,-515,-1229,-1091,-461,16,185,214,151,52,11,4,-15,-38,-55,-64,-59,-58,-67,-71,-67,-60,-47,-42,-39,-33,-13,8,11,-18,-37,-21,9,8,-30,-80,-120,-159,-189,-198,-183,-155,-141,-147,-155,-145,-114,-87,-72,-63,-60,-66,-78,-79,-65,-53,-55,-65,-75,-80,-75,-62,-55,-60,-79,-97,-101,-78,-56,-56,-61,-55,-48,-59,-81,-83,-67,-64,-84,-102,-95,-80,-70,-65,-62,-65,-62,-18,21,-99,-196,157,794,907,125,-911,-1285,-859,-237,115,234,234,134,48,34,18,-18,-43,-36,-15,-11,-33,-49,-42,-19,-7,-8,-11,0,24,53,63,49,22,9,11,10,-5,-30,-67,-121,-177,-200,-168,-123,-110,-119,-121,-87,-50,-44,-68,-85,-78,-58,-41,-39,-55,-65,-74,-72,-61,-64,-71,-69,-54,-38,-36,-46,-51,-47,-45,-36,-13,12,-6,-58,-83,-51,-8,-21,-66,-84,-68,-52,-51,-55,-48,-42,-6,42,-78,-296,-91,675,1200,663,-603,-1427,-1185,-409,110,231,203,133,59,30,8,-13,-16,-11,-12,-12,-15,-19,-26,-27,-22,-12,-4,3,15,15,3,-20,-24,-12,-5,-20,-56,-99,-135,-165,-191,-213,-222,-208,-180,-153,-134,-119,-107,-94,-80,-62,-49,-47,-52,-59,-65,-60,-52,-52,-70,-88,-88,-78,-69,-74,-72,-68,-65,-55,-44,-41,-42,-44,-46,-48,-51,-43,-33,-53,-85,-97,-89,-75,-61,-45,-42,-57,-33,11,-104,-294,-40,712,1126,482,-765,-1449,-1077,1
person_abn35,-100,-57,-22,-34,-73,-97,-94,-68,-26,-4,-37,-122,-179,-164,-99,-75,-102,-115,-98,-97,-62,86,212,34,-523,-1077,-1065,-424,318,637,511,247,90,52,32,5,0,-13,-36,-57,-59,-41,-19,-11,-22,-35,-20,14,35,34,10,-1,-5,-14,-45,-82,-95,-89,-92,-123,-162,-166,-132,-77,-32,-15,-22,-39,-53,-61,-60,-58,-71,-85,-91,-89,-89,-89,-77,-45,-31,-54,-74,-69,-41,-8,-7,-68,-150,-185,-153,-99,-78,-87,-77,-84,-116,-54,105,141,-178,-753,-1098,-810,-78,525,665,457,191,47,2,-19,-20,-17,-24,-24,-12,-5,-19,-48,-52,-9,29,21,-12,-15,-1,1,-22,-32,-21,-17,-27,-62,-115,-158,-160,-133,-102,-88,-84,-73,-48,-30,-30,-41,-70,-90,-75,-37,-35,-77,-116,-112,-76,-50,-59,-86,-102,-91,-58,-16,-6,-26,-62,-100,-132,-138,-111,-87,-86,-93,-109,-125,-25,184,251,-82,-715,-1127,-888,-174,449,618,439,185,42,4,-10,-16,-13,-13,-21,-33,-48,-43,-22,7,19,8,-16,-31,-34,-24,-11,-1,-8,-14,-23,-42,-72,-106,-117,-116,-108,-92,-68,-60,-75,-83,-79,-80,-71,-50,-45,-70,-103,-111,-88,-66,-71,-80,-82,-88,-96,-88,-61,-35,-20,-13,-41,-96,-156,-165,-126,-89,-86,-87,-77,-100,-83,69,225,99,-418,-1001,-1087,-535,212,609,544,282,94,37,9,-24,-37,-40,-36,-37,-41,-33,-21,-12,-13,-17,-21,-12,5,15,-3,-33,-36,-19,-18,-51,-89,-112,-126,-130,-122,-99,-81,-65,-56,-55,-65,-69,-65,-64,-76,-84,-77,-72,-69,-78,-91,-81,-54,-51,-71,-88,-74,-34,3,-7,-67,-151,-187,-147,-81,-65,-92,-100,-103,-109,-14,161,165,-207,-802,-1103,-767,-44,500,588,383,177,99,59,-15,-57,-45,-24,-27,-31,-20,-19,-34,-41,-15,17,21,11,-1,1,-7,-24,-30,-20,-22,-54,-115,-162,-154,-113,-87,-94,-97,-75,-50,-39,-43,-36,-32,-62,-112,-130,-106,-72,-57,-68,-91,-96,-86,-70,-52,-34,-28,-19,-30,-71,-126,-167,-169,-133,-80,-7,77,89,53,120,316,437,309,-25,-364,-558,-604,-529,-388,-280,-229,-183,-131,-104,-101,-114,-124,-120,-114,-130,-151,-150,-113,-67,-31,11,69,130,168,184,184,148,106,86,81,56,7,-38,-63,-70,-74,-69,-58,-60,-70,-59,-46,-55,-78,-86,-66,-52,-62,-79,-78,-71,-67,-64,-69,-93,-104,-78,-21,24,17,-45,-125,-173,-165,-124,-87,-82,-82,-87,-116,-75,91,208,12,-524,-1025,-990,-388,297,603,504,252,85,53,39,9,-21,-55,-54,-15,-1,-23,-55,-53,-10,39,51,32,17,17,9,-5,-20,-35,-45,-58,-83,-115,-153,-174,-168,-145,-117,-85,-53,-41,-45,-45,-30,-26,-51,-80,-101,-103,-95,-73,-51,-46,-60,-90,-92,-77,-63,-50,-30,-29,-64,-128,-178,-163,-97,-53,-63,-79,-92,-111,-43,131,195,-114,-728,-1118,-856,-119,482,615,422,191,65,15,-24,-31,-11,-3,-20,-49,-57,-43,-23,-18,-13,-4,11,15,-5,-28,-38,-19,8,11,-13,-45,-77,-121,-154,-146,-104,-61,-46,-63,-74,-57,-41,-49,-66,-66,-57,-68,-101,-113,-101,-90,-69,-44,-46,-74,-88,-70,-42,-32,-49,-70,-102,-143,-158,-121,-83,-74,-86,-118,-132,-24,166,197,-160,-782,-1136,-814,-50,533,618,379,147,68,55,8,-34,-46,-33,-16,-8,-19,-33,-38,-35,-29,-4,23,26,2,-28,-42,-20,1,-3,-28,-63,-100,-124,-139,-144,-143,-123,-85,-43,-38,-64,-69,-48,-25,-26,-50,-88,-116,-118,-92,-72,-77,-81,-73,-61,-54,-49,-41,-28,-35,-76,-127,-162,-153,-117,-85,-77,-82,-115,-107,31,171,40,-452,-980,-1028,-463,267,628,549,294,111,51,25,-10,-38,-59,-59,-27,-6,-12,-24,-34,-33,-26,-3,29,43,19,-13,-35,-39,-36,-33,-42,-63,-91,-121,-137,-131,-112,-87,-72,-59,-50,-54,-72,1
person_abn36,-45,-58,-60,-46,-32,-44,-63,-62,-35,5,25,-5,-66,-103,-97,-77,-72,-83,-71,-30,-47,-146,-23,553,959,352,-998,-1811,-1332,-199,504,530,366,275,170,85,58,29,-10,-27,-32,-22,-11,-11,-12,-4,13,32,58,75,91,103,88,53,19,-8,-40,-87,-155,-217,-255,-269,-272,-281,-286,-258,-202,-150,-128,-113,-103,-86,-67,-52,-48,-52,-68,-66,-64,-75,-91,-93,-82,-64,-62,-72,-77,-69,-65,-59,-61,-71,-74,-61,-45,-42,-53,-66,-64,-58,-60,-39,-8,7,-18,-56,-83,-89,-84,-71,-66,-61,-44,-50,-129,-110,331,897,669,-550,-1700,-1651,-583,383,623,462,324,210,91,54,46,24,1,-34,-41,-21,-7,3,10,24,50,80,78,71,86,101,89,55,4,-52,-106,-148,-184,-235,-303,-338,-314,-266,-237,-223,-193,-146,-115,-102,-77,-59,-54,-54,-55,-63,-60,-66,-73,-76,-82,-91,-85,-82,-83,-77,-62,-52,-60,-81,-78,-58,-46,-51,-50,-50,-56,-63,-59,-26,2,-5,-33,-55,-73,-89,-98,-93,-77,-46,-31,-103,-168,139,772,879,-103,-1430,-1801,-949,147,599,505,359,260,136,58,43,29,9,-17,-27,-15,0,10,11,10,26,56,79,94,102,105,98,73,29,-26,-89,-149,-200,-246,-301,-319,-311,-301,-283,-241,-191,-140,-108,-96,-79,-55,-52,-51,-50,-58,-67,-65,-64,-70,-81,-90,-93,-81,-73,-72,-65,-59,-61,-66,-68,-60,-56,-60,-60,-57,-66,-72,-52,-3,31,10,-44,-87,-103,-103,-95,-82,-63,-34,-42,-135,-95,387,917,580,-683,-1743,-1569,-470,433,614,447,314,205,99,58,33,-1,-23,-29,-18,4,16,19,12,22,39,62,84,100,102,98,76,38,-13,-70,-125,-180,-236,-286,-315,-328,-316,-289,-264,-227,-175,-120,-101,-100,-78,-26,45,113,221,355,422,476,663,850,644,-93,-971,-1403,-1242,-832,-517,-342,-238,-181,-130,-106,-102,-95,-73,-52,-41,-44,-51,-67,-72,-62,-31,1,20,38,72,110,133,131,127,132,135,108,53,13,-9,-31,-65,-97,-105,-100,-96,-90,-79,-78,-81,-75,-67,-60,-66,-74,-79,-81,-69,-52,-44,-49,-56,-58,-56,-53,-49,-50,-47,-49,-53,-50,-52,-58,-61,-56,-46,-41,-48,-60,-58,-42,-34,-41,-51,-50,-44,-48,-53,-53,-54,-53,-55,-52,-46,-38,-42,-47,-49,-53,-53,-48,-45,-48,-55,-55,-51,-42,-41,-44,-47,-50,-33,-6,-73,-159,164,883,1066,44,-1467,-2051,-1259,-35,604,603,434,287,146,75,53,33,18,-3,-16,-6,16,33,43,56,73,77,77,85,100,112,110,86,60,41,15,-30,-71,-111,-151,-200,-246,-267,-272,-273,-265,-248,-218,-196,-185,-175,-165,-156,-152,-147,-134,-117,-107,-110,-108,-98,-90,-88,-89,-79,-65,-59,-66,-73,-71,-68,-65,-65,-65,-67,-66,-64,-60,-59,-60,-62,-62,-62,-61,-56,-48,-42,-44,-53,-63,-67,-57,-52,-48,-45,-47,-52,-55,-54,-56,-58,-59,-59,-49,-42,-38,-26,-8,-79,-187,89,826,1148,222,-1362,-2114,-1396,-97,621,618,423,283,159,78,42,7,-5,-2,-1,2,4,11,29,46,66,82,95,104,105,100,87,60,26,-18,-57,-91,-136,-184,-233,-269,-282,-276,-259,-246,-227,-197,-172,-155,-146,-133,-113,-108,-112,-120,-116,-112,-103,-102,-107,-102,-87,-74,-67,-70,-68,-62,-54,-57,-70,-75,-70,-61,-62,-69,-69,-58,-53,-55,-51,-51,-56,-63,-65,-58,-58,-63,-63,-56,-51,-55,-59,-61,-63,-64,-66,-64,-60,-57,-60,-64,-58,-56,-56,-41,-19,-88,-182,130,856,1058,42,-1462,-1999,-1154,56,608,526,350,230,102,26,4,-7,-8,-15,-19,-10,-1,8,20,35,50,69,84,95,95,84,74,61,30,-14,-51,-86,-123,-174,-223,-252,-264,-257,-242,-224,-206,-188,-167,-149,-135,-126,-114,-103,-95,-94,-98,-104,-102,-93,-84,-81,-81,-77,-78,-71,-64,-58,1
person_abn37,-73,-44,-24,-25,-39,-60,-75,-76,-68,-68,-74,-78,-76,-67,-55,-37,-24,-31,-50,-44,-27,-53,-131,-95,224,586,505,-58,-585,-614,-291,-54,-52,-98,-78,-52,-54,-59,-59,-51,-43,-36,-29,-23,-16,-15,-22,-21,-11,-5,-14,-23,-20,-19,-23,-38,-47,-52,-71,-103,-129,-139,-142,-138,-133,-127,-116,-99,-81,-67,-59,-59,-64,-69,-65,-55,-50,-51,-59,-60,-58,-58,-65,-68,-67,-64,-64,-65,-71,-84,-89,-86,-67,-39,-21,-20,-38,-55,-63,-62,-61,-59,-59,-63,-73,-81,-81,-70,-57,-56,-57,-42,-35,-84,-155,-51,319,593,361,-243,-638,-525,-189,-22,-59,-92,-70,-57,-52,-49,-50,-47,-41,-33,-37,-42,-30,-15,-7,-9,-12,-6,1,7,7,-9,-28,-46,-55,-57,-74,-110,-145,-161,-154,-141,-127,-116,-109,-99,-88,-79,-75,-71,-63,-50,-42,-43,-54,-60,-59,-55,-54,-56,-64,-71,-66,-61,-71,-86,-82,-62,-41,-35,-36,-48,-65,-83,-86,-72,-60,-60,-60,-60,-63,-67,-67,-64,-65,-67,-58,-46,-83,-151,-34,343,606,350,-269,-665,-537,-182,-8,-38,-77,-60,-51,-53,-55,-50,-50,-49,-50,-51,-44,-30,-15,-9,-7,-8,-10,-13,-14,-6,2,-11,-31,-47,-58,-75,-108,-146,-168,-163,-152,-143,-128,-109,-96,-91,-87,-77,-66,-59,-57,-62,-73,-81,-74,-58,-55,-65,-84,-96,-95,-84,-73,-79,-101,-117,-112,-82,-58,-52,-63,-92,-114,-109,-87,-75,-86,-92,-89,-88,-96,-103,-99,-99,-103,-84,-60,-89,-172,-103,260,606,453,-166,-664,-622,-264,-46,-57,-98,-68,-46,-51,-57,-58,-45,-28,-33,-50,-53,-35,-23,-23,-27,-29,-28,-26,-15,-5,-7,-20,-33,-40,-46,-64,-86,-116,-143,-152,-141,-129,-117,-110,-94,-81,-66,-60,-47,-36,-40,-51,-50,-41,-36,-45,-47,-39,-39,-41,-50,-54,-61,-67,-61,-21,-4,-67,-53,190,432,258,-359,-885,-831,-311,160,308,248,141,62,22,11,1,-8,-23,-25,-14,-4,-6,-11,-11,0,16,32,39,40,39,31,21,9,-19,-61,-111,-168,-211,-228,-225,-202,-163,-134,-117,-112,-101,-79,-60,-52,-51,-47,-41,-40,-42,-50,-61,-63,-57,-43,-34,-36,-41,-44,-50,-56,-54,-46,-37,-35,-46,-50,-41,-24,-16,-22,-31,-36,-25,-27,-46,-69,-70,-50,-45,-64,-83,-71,-42,-19,-12,-14,-19,-39,-62,-64,-55,-56,-71,-74,-56,-39,-39,-51,-66,-67,-48,-27,-45,-134,-117,222,630,589,0,-595,-679,-344,-58,-33,-89,-83,-64,-59,-59,-68,-68,-62,-54,-47,-41,-39,-42,-41,-29,-19,-23,-38,-45,-31,-21,-27,-41,-55,-69,-82,-95,-107,-136,-162,-169,-156,-139,-135,-129,-121,-110,-98,-81,-65,-58,-63,-67,-65,-60,-56,-57,-58,-56,-54,-61,-73,-89,-101,-99,-80,-57,-35,-28,-43,-66,-85,-88,-71,-53,-52,-71,-79,-64,-45,-40,-62,-84,-73,-36,-32,-107,-165,47,481,664,267,-385,-692,-483,-140,-25,-89,-115,-87,-70,-62,-58,-59,-56,-50,-44,-39,-43,-56,-54,-33,-17,-15,-18,-11,-4,-20,-46,-55,-56,-71,-94,-125,-145,-155,-162,-161,-151,-145,-138,-124,-105,-91,-78,-69,-67,-61,-54,-47,-55,-72,-78,-64,-50,-56,-67,-76,-80,-87,-82,-59,-30,-22,-35,-57,-64,-62,-62,-70,-76,-75,-64,-50,-39,-43,-49,-62,-74,-66,-46,-52,-124,-129,148,546,561,39,-542,-648,-332,-52,-26,-85,-72,-48,-52,-51,-55,-54,-44,-39,-43,-45,-39,-32,-29,-25,-13,3,7,-2,-10,-11,-8,-22,-46,-69,-85,-109,-142,-168,-171,-159,-144,-128,-107,-97,-88,-78,-63,-51,-55,-58,-57,-43,-40,-41,-38,-40,-53,-60,-58,-49,-49,-62,-70,-59,-37,-28,-38,-56,-60,-51,-45,-50,-58,-65,-68,-64,-57,-56,-57,-47,-43,-49,-46,-33,-59,-136,-88,260,610,482,-108,-602,-577,-236,-17,-37,-82,-54,-34,-42,-49,-53,-41,-35,-42,-49,1
