,0,1,2,3,4,5,6,7,8,9,10,11,12,13,14,15,16,17,18,19,20,21,22,23,24,25,26,27,28,29,30,31,32,33,34,35,36,37,38,39,40,41,42,43,44,45,46,47,48,49,50,51,52,53,54,55,56,57,58,59,60,61,62,63,64,65,66,67,68,69,70,71,72,73,74,75,76,77,78,79,80,81,82,83,84,85,86,87,88,89,90,91,92,93,94,95,96,97,98,99,100,101,102,103,104,105,106,107,108,109,110,111,112,113,114,115,116,117,118,119,120,121,122,123,124,125,126,127,128,129,130,131,132,133,134,135,136,137,138,139,140,141,142,143,144,145,146,147,148,149,150,151,152,153,154,155,156,157,158,159,160,161,162,163,164,165,166,167,168,169,170,171,172,173,174,175,176,177,178,179,180,181,182,183,184,185,186,187,188,189,190,191,192,193,194,195,196,197,198,199,200,201,202,203,204,205,206,207,208,209,210,211,212,213,214,215,216,217,218,219,220,221,222,223,224,225,226,227,228,229,230,231,232,233,234,235,236,237,238,239,240,241,242,243,244,245,246,247,248,249,250,251,252,253,254,255,256,257,258,259,260,261,262,263,264,265,266,267,268,269,270,271,272,273,274,275,276,277,278,279,280,281,282,283,284,285,286,287,288,289,290,291,292,293,294,295,296,297,298,299,300,301,302,303,304,305,306,307,308,309,310,311,312,313,314,315,316,317,318,319,320,321,322,323,324,325,326,327,328,329,330,331,332,333,334,335,336,337,338,339,340,341,342,343,344,345,346,347,348,349,350,351,352,353,354,355,356,357,358,359,360,361,362,363,364,365,366,367,368,369,370,371,372,373,374,375,376,377,378,379,380,381,382,383,384,385,386,387,388,389,390,391,392,393,394,395,396,397,398,399,400,401,402,403,404,405,406,407,408,409,410,411,412,413,414,415,416,417,418,419,420,421,422,423,424,425,426,427,428,429,430,431,432,433,434,435,436,437,438,439,440,441,442,443,444,445,446,447,448,449,450,451,452,453,454,455,456,457,458,459,460,461,462,463,464,465,466,467,468,469,470,471,472,473,474,475,476,477,478,479,480,481,482,483,484,485,486,487,488,489,490,491,492,493,494,495,496,497,498,499,500,501,502,503,504,505,506,507,508,509,510,511,512,513,514,515,516,517,518,519,520,521,522,523,524,525,526,527,528,529,530,531,532,533,534,535,536,537,538,539,540,541,542,543,544,545,546,547,548,549,550,551,552,553,554,555,556,557,558,559,560,561,562,563,564,565,566,567,568,569,570,571,572,573,574,575,576,577,578,579,580,581,582,583,584,585,586,587,588,589,590,591,592,593,594,595,596,597,598,599,600,601,602,603,604,605,606,607,608,609,610,611,612,613,614,615,616,617,618,619,620,621,622,623,624,625,626,627,628,629,630,631,632,633,634,635,636,637,638,639,640,641,642,643,644,645,646,647,648,649,650,651,652,653,654,655,656,657,658,659,660,661,662,663,664,665,666,667,668,669,670,671,672,673,674,675,676,677,678,679,680,681,682,683,684,685,686,687,688,689,690,691,692,693,694,695,696,697,698,699,700,701,702,703,704,705,706,707,708,709,710,711,712,713,714,715,716,717,718,719,720,721,722,723,724,725,726,727,728,729,730,731,732,733,734,735,736,737,738,739,740,741,742,743,744,745,746,747,748,749,target
person1,-244,-529,-522,-417,-325,-259,-182,-115,-101,-112,-90,-24,17,-36,-124,-149,-101,-52,-72,-119,-118,-54,-1,-25,-90,-105,-51,1,-11,-65,-93,-75,-52,-62,-74,-77,-76,-44,5,18,-9,-64,-90,-51,-16,-42,-60,-50,-71,-120,-134,-75,-2,4,-49,-63,-34,-33,-59,-91,-120,-117,-57,8,24,-1,-43,-66,-77,-78,-49,-11,-18,-56,-65,-18,17,-31,-128,-167,-95,-19,-19,-62,-76,-63,-67,-100,-130,-120,-80,-53,-33,-12,5,-2,-37,-72,-84,-99,-140,-140,-49,58,73,-10,-111,-159,-148,-97,-43,-23,-32,-31,-53,-161,-297,-221,198,698,847,508,-35,-425,-550,-494,-380,-282,-210,-134,-72,-87,-162,-196,-138,-36,-6,-61,-100,-66,6,30,-28,-114,-150,-142,-153,-152,-102,-61,-79,-129,-117,-39,6,3,-19,-38,-61,-71,-50,-20,-17,-35,-51,-64,-88,-117,-118,-64,22,53,8,-61,-95,-96,-74,-52,-37,-37,-51,-57,-61,-89,-125,-123,-88,-73,-84,-88,-64,-36,-53,-75,-57,-25,-40,-86,-68,-1,1,-73,-132,-117,-57,-17,-19,-46,-63,-74,-68,-33,-33,-75,-84,-37,-4,-34,-72,-51,-7,-10,-102,-174,-123,-14,40,11,-74,-151,-157,-85,-1,28,-25,-89,-90,-108,-200,-263,-134,238,656,781,455,-114,-542,-629,-478,-318,-232,-192,-165,-133,-95,-80,-68,-44,-36,-69,-112,-124,-88,-45,-73,-165,-186,-99,-6,17,2,34,80,44,-62,-119,-110,-101,-95,-70,-53,-64,-89,-97,-75,-56,-60,-68,-48,3,31,13,-49,-112,-116,-69,-25,-11,-17,-44,-42,-50,-119,-160,-104,-32,-23,-72,-88,-14,54,1,-95,-136,-160,-151,-86,-37,-50,-113,-161,-128,-75,-109,-183,-165,-65,-20,-46,-65,-38,-8,-48,-101,-78,-13,11,-26,-56,-53,-51,-50,-64,-83,-94,-105,-84,-26,9,-36,-75,-22,41,7,-90,-131,-55,3,-84,-232,-231,-2,328,524,419,107,-183,-321,-341,-332,-337,-305,-178,-12,50,-18,-123,-155,-86,-20,-29,-90,-110,-67,-40,-61,-97,-57,16,2,-63,-92,-86,-64,-11,55,62,-6,-101,-159,-167,-123,-44,17,-2,-53,-92,-114,-104,-56,-3,18,17,27,11,-70,-132,-100,-45,-52,-78,-80,-56,-33,-27,-20,-7,-11,-45,-68,-50,3,42,25,-36,-116,-144,-93,-7,41,10,-56,-83,-71,-60,-64,-82,-120,-137,-106,-63,-39,-50,-74,-102,-129,-134,-105,-61,-38,-51,-49,-37,-40,-52,-57,-44,-16,-15,-83,-149,-130,-95,-87,-58,-70,-167,-224,-62,335,683,671,334,-81,-420,-592,-519,-341,-286,-316,-264,-96,29,-6,-116,-156,-94,-37,-88,-174,-169,-78,-19,-43,-88,-83,-51,-76,-144,-164,-104,1,82,83,34,-4,-33,-60,-60,-54,-67,-90,-78,-56,-53,-58,-42,-32,-47,-61,-59,-55,-42,-37,-50,-51,-29,18,13,-71,-142,-121,-55,-47,-73,-60,-12,2,-39,-79,-93,-78,-35,-20,-35,-66,-113,-128,-85,-1,64,39,-54,-122,-120,-92,-71,-54,-69,-79,-48,-6,-24,-94,-111,-50,-13,-63,-105,-47,53,77,-3,-104,-124,-78,-31,-32,-88,-150,-136,-71,-106,-272,-292,106,757,1106,826,147,-441,-687,-667,-542,-405,-292,-214,-174,-140,-104,-70,-56,-80,-128,-145,-97,-25,-17,-84,-146,-137,-110,-123,-161,-151,-83,-14,14,18,11,-9,-12,40,107,102,34,-12,-8,-13,-41,-22,28,13,-94,-170,-117,-18,-14,-106,-158,-87,28,54,-33,-109,-111,-74,-59,-65,-64,-17,37,43,-24,-101,-116,-63,-9,13,0,-36,-78,-110,-115,-73,-24,-23,-49,-30,22,49,-3,-92,-122,-87,-59,-61,-77,-71,-59,-69,-91,-87,-56,-76,-166,-213,-143,-28,45,51,5,-47,-89,-115,-99,-24,37,37,-52,-267,-445,-293,262,880,1045,603,-72,-520,-653,-625,-511,-331,-185,-145,-154,-119,-56,-29,-62,-115,-147,-147,-120,-81,-45,-22,-52,-121,-168,-166,-134,-113,-90,-41,14,20,-5,5,25,0
person2,-32,-23,-3,-28,-147,-145,297,920,979,197,-735,-986,-571,-131,-48,-120,-117,-82,-64,-52,-50,-48,-38,-19,-7,-10,-21,-27,-18,-5,-1,0,-2,4,8,13,9,5,-1,-9,-26,-52,-85,-124,-160,-187,-195,-184,-159,-137,-115,-99,-80,-58,-34,-25,-25,-28,-30,-28,-22,-19,-21,-23,-24,-21,-19,-23,-30,-34,-35,-34,-38,-41,-51,-59,-61,-61,-49,-28,-8,-7,-32,-67,-86,-84,-74,-67,-64,-58,-57,-60,-60,-60,-59,-55,-59,-58,-36,-5,-51,-183,-91,461,1008,809,-125,-927,-927,-411,-50,-43,-100,-84,-59,-53,-46,-42,-45,-49,-45,-36,-37,-44,-40,-34,-25,-23,-15,-7,-1,1,0,1,-5,-12,-19,-31,-62,-110,-171,-215,-240,-231,-206,-175,-157,-141,-126,-105,-87,-79,-72,-65,-63,-64,-64,-56,-53,-59,-64,-58,-51,-58,-64,-66,-69,-75,-85,-92,-94,-91,-93,-83,-69,-64,-67,-82,-87,-71,-38,-13,-15,-42,-74,-88,-90,-82,-70,-67,-74,-80,-84,-82,-81,-73,-60,-53,-51,-37,-20,-78,-204,-70,516,1026,751,-201,-942,-883,-380,-74,-90,-131,-87,-65,-62,-54,-50,-45,-45,-41,-30,-28,-28,-27,-26,-28,-31,-24,-11,-3,-1,0,5,-1,-14,-25,-40,-60,-97,-146,-188,-209,-212,-199,-171,-144,-120,-102,-92,-73,-65,-61,-59,-49,-38,-37,-43,-45,-47,-51,-54,-59,-55,-52,-52,-54,-64,-73,-70,-61,-54,-57,-62,-70,-76,-78,-74,-58,-31,-13,-17,-50,-76,-88,-77,-65,-60,-71,-77,-73,-67,-63,-62,-63,-63,-72,-72,-45,-26,-115,-221,21,646,1003,531,-436,-987,-761,-261,-42,-86,-115,-85,-70,-64,-54,-47,-39,-40,-38,-38,-33,-26,-22,-29,-36,-34,-23,-11,-5,-2,-4,-5,-7,-11,-17,-30,-63,-112,-166,-198,-211,-210,-196,-168,-130,-105,-95,-87,-74,-61,-57,-51,-49,-47,-47,-50,-54,-53,-46,-43,-43,-45,-50,-52,-56,-62,-63,-62,-60,-54,-51,-59,-64,-64,-62,-44,-17,8,2,-34,-67,-70,-58,-37,-16,-22,-61,-97,-96,-52,-7,0,-18,-36,-26,3,-12,-136,-154,238,795,805,37,-819,-972,-474,-11,49,-41,-23,7,-63,-162,-176,-94,-6,9,-20,-29,-16,-16,-25,-27,-25,-25,-18,-12,-3,2,-1,-8,-15,-26,-41,-60,-87,-126,-168,-199,-214,-210,-191,-162,-136,-117,-97,-84,-70,-63,-60,-57,-54,-53,-52,-50,-54,-52,-50,-48,-50,-52,-63,-62,-66,-67,-64,-66,-68,-68,-66,-63,-65,-65,-69,-72,-75,-73,-71,-64,-67,-74,-78,-68,-56,-59,-72,-84,-79,-77,-80,-83,-76,-63,-60,-68,-77,-75,-53,-43,-50,-75,-102,-106,-97,-87,-79,-80,-78,-77,-81,-86,-89,-86,-81,-71,-74,-72,-56,-69,-169,-160,238,806,841,105,-776,-1008,-586,-122,-6,-60,-74,-61,-61,-59,-61,-67,-75,-74,-69,-60,-60,-62,-61,-63,-61,-54,-50,-54,-55,-44,-29,-21,-21,-27,-39,-59,-95,-137,-180,-216,-239,-248,-231,-199,-178,-173,-177,-154,-114,-81,-78,-105,-130,-136,-129,-112,-91,-61,-27,-1,10,7,-12,-24,-23,-16,-7,-6,-13,-25,-39,-42,-40,-41,-51,-64,-68,-56,-31,-6,10,10,-5,-26,-45,-49,-46,-43,-39,-38,-41,-40,-34,-25,-15,-11,-27,-46,-43,9,42,-40,-123,156,756,1022,462,-491,-955,-667,-165,30,-16,-42,-19,-16,-12,-3,9,6,-3,-8,-2,8,14,11,11,15,20,17,16,29,40,47,45,41,30,14,-9,-37,-80,-128,-180,-209,-218,-206,-191,-174,-160,-147,-138,-126,-106,-89,-83,-80,-75,-71,-70,-70,-72,-71,-75,-80,-86,-93,-86,-96,-124,-78,-9,-87,-342,-532,-434,-175,56,178,125,-132,-463,-537,-275,39,176,178,167,61,-165,-338,-361,-276,-177,-127,-101,-57,23,110,153,145,119,97,92,107,137,84,-71,-21,495,1009,739,-329,-1279,-1364,-824,-368,-243,-207,-115,-39,-12,-20,-36,-22,33,105,0
person3,-41,-24,-198,-380,-103,663,1235,996,145,-558,-729,-622,-545,-471,-363,-268,-207,-170,-138,-109,-90,-81,-87,-97,-106,-118,-122,-116,-108,-105,-102,-97,-78,-58,-44,-40,-46,-50,-42,-19,-2,3,-1,-5,-7,-10,-7,1,4,-3,-14,-20,-26,-36,-46,-51,-52,-58,-70,-84,-87,-84,-77,-80,-84,-85,-76,-72,-75,-95,-123,-137,-126,-99,-70,-57,-61,-77,-91,-92,-90,-64,-19,-121,-369,-306,374,1196,1323,578,-346,-753,-670,-511,-413,-310,-219,-149,-93,-62,-54,-44,-25,-21,-52,-98,-132,-143,-139,-127,-117,-127,-135,-129,-105,-75,-49,-24,0,18,22,16,11,-3,-25,-47,-57,-43,-28,-27,-36,-39,-26,-14,-7,-12,-19,-29,-39,-42,-45,-53,-54,-43,-24,-24,-49,-67,-67,-59,-49,-42,-39,-46,-60,-75,-80,-85,-81,-82,-51,-16,-139,-347,-202,455,1107,1065,341,-411,-689,-625,-528,-441,-324,-225,-172,-156,-152,-135,-112,-89,-80,-86,-90,-101,-107,-105,-91,-84,-88,-83,-62,-38,-27,-33,-39,-24,2,35,54,56,40,20,-3,-34,-79,-118,-143,-144,-130,-113,-91,-68,-55,-50,-33,-20,-19,-33,-50,-57,-53,-40,-25,-9,-3,-6,-16,-21,-23,-22,-34,-54,-73,-81,-80,-85,-57,2,-78,-268,-186,385,1015,1042,389,-353,-668,-623,-528,-457,-359,-262,-190,-136,-102,-79,-67,-63,-69,-73,-75,-83,-97,-117,-135,-144,-143,-140,-131,-113,-101,-89,-80,-74,-73,-68,-58,-45,-34,-29,-34,-54,-67,-74,-76,-80,-91,-92,-91,-95,-104,-109,-110,-111,-99,-87,-74,-66,-68,-76,-86,-82,-67,-51,-43,-32,-14,-3,-16,-43,-60,-60,-56,-59,-40,-22,-115,-263,-165,312,806,821,313,-266,-530,-524,-450,-373,-292,-219,-167,-128,-99,-74,-57,-37,-28,-44,-55,-46,-68,-172,-311,-384,-341,-244,-168,-128,-95,-60,-26,1,11,4,-5,3,19,30,27,7,-15,-25,-23,-22,-26,-32,-35,-43,-54,-58,-32,1,11,-10,-36,-46,-46,-46,-60,-59,-40,-20,-8,-14,-26,-32,-41,-53,-60,-57,-43,-9,13,-58,-179,-134,198,584,655,336,-92,-340,-386,-363,-321,-259,-201,-157,-124,-91,-70,-65,-66,-69,-63,-61,-70,-77,-76,-74,-64,-53,-54,-69,-80,-79,-58,-42,-43,-61,-72,-78,-79,-73,-59,-52,-59,-70,-78,-77,-72,-60,-49,-40,-38,-37,-34,-31,-25,-15,-16,-18,-21,-26,-30,-32,-23,3,26,39,43,39,23,-11,-47,-74,-99,-96,-93,-212,-359,-174,418,919,791,138,-430,-571,-477,-421,-377,-295,-219,-169,-127,-88,-57,-35,-16,-12,-18,-41,-69,-88,-91,-87,-87,-81,-55,-21,9,3,-20,-35,-42,-47,-53,-63,-69,-55,-30,-11,-5,-17,-18,-8,-19,-68,-103,-90,-38,5,21,21,3,-11,7,13,-26,-100,-145,-136,-104,-93,-110,-126,-139,-157,-167,-172,-158,-131,-82,17,-35,-317,-340,329,1255,1494,738,-280,-750,-681,-549,-492,-391,-275,-187,-124,-96,-66,-38,-41,-87,-139,-150,-129,-123,-153,-180,-188,-186,-173,-152,-125,-101,-81,-66,-54,-46,-38,-24,-7,-4,1,3,4,-9,-40,-76,-75,-42,-22,-30,-43,-48,-43,-30,-23,-20,-26,-51,-73,-68,-52,-41,-33,-34,-42,-53,-63,-68,-60,-56,-67,-28,-11,-210,-411,-135,632,1205,982,182,-462,-625,-569,-533,-459,-342,-250,-192,-150,-108,-78,-73,-79,-87,-101,-123,-145,-155,-150,-145,-137,-123,-96,-60,-19,11,23,24,33,39,33,19,8,2,-10,-24,-37,-40,-33,-20,-15,-16,-28,-37,-36,-34,-40,-52,-61,-58,-43,-35,-42,-44,-43,-39,-33,-28,-25,-28,-31,-38,-45,-45,-54,-32,31,-101,-421,-353,465,1438,1564,677,-384,-836,-787,-693,-624,-491,-358,-272,-214,-172,-147,-143,-147,-130,-91,-58,-61,-104,-150,-163,-135,-94,-71,-73,-79,-83,-86,-70,-40,-6,17,16,2,-18,-28,-32,-35,-50,-67,-81,-77,-61,-38,-23,-15,-14,-15,-21,-22,0
person4,-70,-67,-46,-32,-30,-21,0,25,19,-33,-99,-151,-167,-147,-102,-76,-78,-89,-81,-67,-58,-65,-69,-62,-57,-58,-57,-50,-46,-49,-60,-64,-64,-70,-81,-81,-85,-87,-71,-18,42,63,33,-14,-49,-59,-59,-60,-62,-67,-36,20,-102,-410,-303,682,1848,1886,539,-998,-1516,-1111,-634,-447,-375,-298,-242,-183,-117,-72,-57,-42,-24,-12,-8,3,9,16,14,27,49,65,64,57,49,43,40,27,-2,-24,-43,-71,-125,-195,-245,-251,-242,-233,-223,-189,-142,-103,-76,-57,-44,-38,-44,-52,-44,-29,-27,-39,-53,-63,-77,-78,-75,-74,-66,-58,-50,-46,-52,-53,-50,-43,-43,-45,-41,-43,-43,-44,-49,-46,-44,-47,-67,-79,-81,-63,-32,3,31,36,18,-9,-33,-49,-71,-94,-103,-88,-71,-36,10,-159,-492,-307,824,2082,2090,625,-1022,-1599,-1208,-712,-476,-356,-267,-208,-157,-100,-47,-19,-12,-14,-24,-35,-31,-7,12,10,1,-2,15,27,33,30,27,25,24,13,-10,-53,-102,-154,-193,-215,-212,-198,-185,-174,-155,-126,-95,-80,-78,-70,-56,-52,-52,-47,-40,-43,-51,-52,-49,-45,-58,-71,-65,-55,-55,-55,-42,-34,-44,-63,-78,-74,-56,-45,-45,-42,-42,-46,-51,-56,-50,-40,-41,-59,-78,-81,-69,-52,-34,-19,-1,9,-3,-33,-65,-82,-81,-73,-69,-77,-72,-16,-102,-406,-406,445,1655,1959,854,-683,-1402,-1147,-686,-465,-367,-265,-182,-132,-106,-86,-67,-39,-9,-2,-3,-15,-16,-4,9,14,11,9,14,26,47,52,43,18,5,-9,-39,-62,-78,-90,-104,-169,-245,-158,162,535,670,505,258,130,-26,-482,-989,-985,-320,494,768,409,-125,-454,-529,-480,-379,-228,1,272,431,337,129,60,74,-55,-366,-700,-785,-539,-181,-37,-209,-469,-503,-258,-67,-98,-141,-80,38,94,45,23,138,344,507,514,368,207,69,-164,-521,-788,-774,-521,-222,-168,-478,-586,250,1733,2429,1424,-448,-1579,-1458,-877,-539,-362,-138,96,227,248,210,212,273,334,318,222,109,39,6,-14,-27,-20,1,17,19,26,32,7,-68,-143,-170,-143,-116,-133,-194,-283,-342,-324,-265,-220,-202,-177,-135,-116,-129,-111,-55,-14,-22,-39,-28,-17,-36,-68,-73,-77,-112,-126,-81,-54,-106,-171,-130,-45,-40,-113,-125,-36,22,-11,-61,-64,-68,-110,-154,-151,-92,-23,15,9,-33,-72,-90,-94,-98,-87,-49,-3,20,12,-26,-71,-115,-137,-129,-101,-82,-28,26,-149,-501,-328,762,1962,1970,610,-928,-1499,-1179,-720,-476,-358,-283,-207,-131,-93,-100,-113,-85,-16,27,-9,-89,-137,-96,1,79,80,24,-17,-5,31,39,29,23,24,3,-46,-96,-141,-159,-147,-139,-165,-214,-217,-172,-139,-140,-134,-92,-33,-11,-28,-51,-58,-53,-40,-30,-26,-29,-26,-17,-20,-31,-30,-32,-56,-97,-127,-117,-67,-14,8,1,-21,-46,-59,-57,-48,-34,-42,-74,-112,-124,-87,-38,-30,-59,-74,-51,-35,-40,-39,-13,7,2,-27,-55,-66,-62,-54,-51,-60,-77,-42,15,-157,-465,-218,904,2004,1831,366,-1094,-1496,-1089,-678,-499,-383,-275,-202,-164,-137,-111,-88,-73,-55,-27,-5,-10,-30,-31,3,57,109,130,111,76,57,63,59,24,-18,-30,-26,-35,-63,-96,-131,-176,-232,-247,-218,-178,-148,-140,-128,-107,-117,-191,-289,-357,-402,-484,-586,-644,-583,-442,-298,-186,-103,-61,-39,-28,-8,18,29,28,23,22,18,14,18,17,14,16,73,188,281,307,252,183,113,50,8,5,34,56,29,-20,-65,-100,-133,-154,-152,-160,-199,-237,-236,-195,-154,-125,-38,-8,-278,-561,-51,1309,2294,1727,9,-1345,-1491,-971,-591,-433,-311,-200,-131,-88,-63,-42,-27,-13,3,14,17,23,28,30,28,23,20,23,30,37,37,27,19,1,-19,-35,-49,-70,-113,-157,-173,-167,-158,-158,-140,-115,-104,-97,-82,-57,-38,-44,-62,-67,-49,-27,-25,-34,-48,-55,-53,0
person5,-110,-223,-223,-157,-113,-115,-102,-91,-91,-98,-100,-87,-79,-89,-110,-129,-141,-146,-144,-149,-167,-188,-190,-173,-152,-138,-123,-98,-64,-23,14,54,87,101,105,94,68,30,3,-1,-6,-24,-53,-66,-62,-70,-81,-76,-62,-55,-61,-73,-85,-83,-61,-29,-7,-15,-46,-66,-59,-42,-29,-38,-56,-80,-118,-156,-159,-118,-71,-52,-47,-36,-17,-17,-51,-74,-67,-51,-43,-61,-125,-144,119,424,-104,-1528,-2416,-1479,647,2037,1762,702,17,-157,-192,-177,-122,-98,-94,-88,-87,-76,-68,-73,-84,-93,-102,-106,-117,-127,-143,-160,-183,-200,-201,-191,-172,-139,-120,-111,-100,-63,-8,40,76,103,115,119,98,61,29,9,-9,-25,-52,-71,-76,-75,-80,-88,-84,-67,-51,-45,-50,-55,-52,-44,-37,-47,-60,-70,-63,-45,-32,-42,-58,-62,-78,-126,-164,-155,-107,-57,-31,-6,17,15,-18,-43,-51,-55,-56,-37,-35,-118,-167,111,424,-166,-1668,-2514,-1413,830,2187,1811,692,12,-136,-149,-126,-93,-106,-122,-117,-108,-93,-91,-90,-89,-95,-108,-124,-124,-120,-133,-155,-168,-174,-177,-174,-156,-129,-110,-94,-72,-37,8,52,90,116,118,104,86,62,35,2,-23,-31,-30,-43,-67,-88,-88,-75,-64,-68,-70,-67,-68,-70,-70,-68,-66,-66,-68,-63,-57,-54,-61,-51,-17,-2,-34,-116,-184,-190,-137,-77,-40,-22,-19,-24,-40,-61,-75,-85,-91,-81,-63,-104,-149,61,394,30,-1302,-2348,-1697,316,1879,1854,870,105,-149,-188,-155,-79,-51,-55,-68,-85,-98,-126,-147,-135,-112,-116,-148,-174,-174,-156,-149,-154,-155,-153,-143,-124,-103,-84,-58,-39,-17,22,57,87,116,137,146,146,127,85,31,-8,-9,31,64,64,54,48,64,122,205,282,340,477,913,1690,2444,2678,2221,1283,220,-682,-1296,-1586,-1623,-1535,-1413,-1289,-1177,-1060,-914,-766,-651,-556,-456,-363,-300,-262,-239,-220,-216,-222,-230,-291,-349,-124,276,-24,-1331,-2389,-1764,249,1841,1851,877,78,-215,-293,-265,-176,-132,-114,-114,-111,-85,-57,-60,-80,-91,-86,-70,-55,-65,-105,-121,-95,-74,-101,-135,-125,-101,-127,-183,-201,-146,-44,54,122,151,140,122,135,173,183,132,45,-25,-71,-105,-137,-158,-158,-140,-127,-108,-60,25,116,170,185,191,190,172,137,110,94,68,21,-39,-95,-137,-166,-183,-160,-75,54,147,154,97,38,-6,-42,-50,-7,60,89,23,-78,38,379,129,-1254,-2681,-2398,-316,1707,2046,1047,78,-273,-317,-291,-214,-173,-152,-101,-62,-57,-87,-119,-125,-94,-64,-79,-131,-159,-163,-171,-207,-239,-236,-210,-184,-163,-146,-142,-128,-73,13,77,117,141,152,141,108,80,60,47,29,-2,-32,-42,-37,-55,-91,-95,-63,-38,-59,-79,-55,-25,-25,-30,-33,-35,-29,-13,-2,-9,-21,-27,-46,-105,-174,-154,-70,-12,-7,-18,-2,16,18,9,-11,-15,1,34,57,-8,-98,76,472,210,-1208,-2562,-2133,9,1911,2053,951,19,-253,-255,-218,-159,-154,-184,-178,-151,-115,-101,-116,-136,-139,-144,-151,-161,-173,-204,-244,-276,-288,-270,-254,-255,-256,-240,-216,-198,-187,-162,-110,-52,-10,12,20,17,5,-13,-41,-73,-97,-104,-94,-76,-69,-62,-64,-70,-52,-29,-27,-45,-58,-29,23,45,29,12,24,46,47,28,10,-5,-36,-77,-81,-31,41,90,112,119,111,92,66,50,51,48,44,22,-69,-122,119,435,-57,-1464,-2371,-1465,648,2071,1836,768,31,-152,-142,-98,-62,-77,-88,-86,-96,-107,-121,-137,-153,-158,-151,-143,-151,-173,-206,-226,-230,-226,-222,-217,-202,-190,-176,-151,-91,-7,69,133,184,206,194,153,118,99,81,43,6,-2,-6,-30,-79,-149,-214,-271,-334,-386,-420,-418,-375,-303,-227,-177,-152,-149,-156,-151,-116,-74,-60,-95,-168,-240,-244,-196,-145,-119,-113,-91,-47,-1,12,-6,-15,7,59,102,46,-58,89,511,375,-894,-2228,-1930,81,1995,2247,1231,271,0
person6,-51,-59,-69,-85,-93,-69,-17,-49,-159,87,785,1090,260,-1152,-1789,-1150,-76,471,464,338,224,109,69,66,38,8,-6,-6,-13,-20,-12,2,7,9,16,37,74,93,85,71,74,78,60,15,-42,-85,-128,-191,-255,-295,-309,-295,-266,-238,-202,-146,-92,-71,-83,-87,-70,-60,-71,-76,-60,-40,-41,-63,-75,-72,-60,-52,-56,-60,-52,-47,-71,-92,-57,-6,9,-32,-80,-83,-55,-52,-77,-87,-47,10,31,1,-52,-92,-115,-125,-105,-62,-47,-51,-47,-98,-178,102,768,985,121,-1201,-1716,-1036,-16,419,387,346,217,34,138,455,536,178,-299,-461,-269,-88,-82,-80,-31,4,23,25,29,48,66,64,73,92,66,-5,-41,-38,-50,-112,-207,-281,-292,-257,-213,-187,-186,-185,-156,-118,-98,-90,-84,-79,-64,-54,-56,-70,-81,-80,-79,-78,-77,-67,-52,-41,-42,-53,-60,-62,-81,-114,-138,-140,-128,-89,-19,49,88,90,85,56,-31,-158,-221,-164,-57,7,31,10,-61,-133,-211,-296,-93,543,945,348,-936,-1711,-1274,-227,425,471,341,242,128,60,44,25,2,-19,-22,5,43,91,125,104,18,-68,-63,29,110,134,131,137,127,87,21,-51,-101,-137,-214,-331,-402,-347,-213,-144,-189,-255,-230,-128,-26,23,22,6,-21,-54,-77,-91,-90,-89,-93,-66,10,80,56,-69,-220,-303,-301,-267,-242,-204,-125,-60,-58,-77,-47,16,37,-4,-33,-10,1,-65,-159,-195,-173,-152,-164,-158,-77,12,23,-95,-119,308,875,721,-339,-1378,-1379,-376,573,735,331,-138,-370,-131,376,510,96,-286,-125,362,557,358,145,3,-263,-580,-649,-441,-204,-92,-37,30,67,64,49,3,-35,-63,-132,-235,-304,-291,-232,-223,-211,-169,-182,-194,23,502,900,835,311,-338,-736,-778,-580,-341,-245,-242,-215,-161,-107,-89,-84,-60,-39,-33,-35,-12,43,62,13,-48,-48,-38,-55,-48,-31,-26,-24,-35,-63,-91,-57,-4,-8,-1,91,113,135,538,1097,882,-349,-1554,-1594,-659,104,190,89,138,176,119,22,-86,-98,-43,-53,-112,-132,-67,31,53,-1,-10,64,133,147,126,107,144,194,134,-44,-248,-355,-312,-229,-237,-322,-362,-325,-247,-181,-142,-116,-102,-121,-112,-76,-61,-61,-56,-53,-57,-73,-83,-60,-44,-59,-70,-52,-29,-24,-27,-33,-44,-58,-54,-28,-22,-48,-66,-66,-56,-43,-11,24,23,-16,-66,-101,-106,-94,-78,-83,-62,-9,-65,-173,109,754,885,-37,-1270,-1601,-838,88,437,355,250,176,87,30,-19,-40,-17,16,11,-21,-44,-25,7,22,16,9,13,20,21,37,74,81,48,-2,-31,-52,-99,-150,-171,-142,-99,-93,-118,-152,-169,-162,-150,-140,-130,-120,-120,-122,-106,-90,-73,-64,-76,-78,-76,-80,-67,-50,-56,-61,-56,-67,-85,-76,-58,-43,-53,-70,-61,-45,-65,-87,-70,-35,-17,-53,-108,-134,-124,-99,-76,-69,-58,2,32,-84,-37,495,986,549,-722,-1641,-1356,-353,320,374,238,153,78,31,17,-3,-6,0,-10,-25,-29,-18,5,29,57,71,62,45,46,64,79,76,53,8,-27,-64,-114,-159,-193,-209,-221,-236,-241,-215,-172,-130,-99,-77,-59,-52,-54,-52,-43,-34,-40,-61,-79,-69,-54,-61,-82,-96,-87,-58,-44,-35,-41,-71,-104,-91,-46,-23,-28,-25,-19,-21,-38,-41,-19,-14,-42,-96,-138,-131,-96,-74,-91,-98,-80,-120,-192,83,742,952,56,-1281,-1794,-1119,-107,375,371,321,273,140,37,20,43,45,-7,-63,-62,-21,15,16,-9,-30,-25,4,39,63,66,63,47,-6,-71,-104,-95,-99,-148,-215,-251,-257,-264,-259,-212,-152,-137,-145,-127,-95,-78,-81,-73,-47,-47,-63,-58,-42,-44,-53,-54,-53,-65,-74,-59,-41,-29,-29,-39,-65,-87,-57,-8,-15,-65,-84,-39,28,53,15,-54,-97,-101,-94,-98,-85,-30,50,79,-52,-159,225,925,951,-160,-1492,-1769,-877,151,529,432,0
person7,-28,-34,-46,-57,-59,-47,-35,-29,-23,-17,-15,-21,-30,-26,-11,-1,-5,-13,-17,-7,1,-9,-30,-56,-84,-107,-129,-151,-162,-156,-136,-116,-107,-105,-102,-87,-73,-58,-49,-50,-63,-75,-77,-72,-68,-70,-75,-78,-79,-76,-66,-59,-57,-61,-70,-86,-91,-84,-73,-66,-63,-56,-33,6,22,-2,-37,-70,-83,-92,-104,-108,-95,-85,-88,-87,-74,-63,-63,-37,-14,-143,-274,69,823,1131,407,-813,-1441,-1092,-371,78,216,212,121,37,15,1,-12,-18,-27,-39,-49,-52,-42,-36,-37,-35,-28,-20,-18,-16,-9,-8,-16,-20,-17,-10,-13,-17,-11,-17,-42,-73,-107,-133,-147,-148,-146,-147,-141,-125,-108,-93,-80,-64,-60,-70,-78,-77,-72,-75,-87,-97,-98,-86,-72,-64,-67,-70,-71,-69,-63,-64,-66,-64,-66,-74,-76,-66,-56,-47,-36,-17,-3,-19,-53,-73,-80,-94,-105,-97,-81,-72,-79,-86,-74,-62,-49,-10,-35,-176,-137,364,910,749,-181,-1090,-1250,-764,-228,69,204,217,122,36,15,9,3,-12,-34,-50,-50,-40,-40,-46,-50,-43,-27,-19,-25,-28,-29,-25,-25,-20,-22,-20,-16,-10,-13,-26,-51,-77,-106,-127,-140,-144,-141,-128,-113,-100,-93,-87,-76,-70,-64,-65,-73,-78,-74,-64,-65,-77,-86,-92,-91,-93,-94,-89,-80,-72,-72,-82,-82,-74,-63,-67,-67,-45,-13,-1,-18,-44,-58,-75,-92,-105,-102,-90,-73,-65,-65,-63,-64,-58,-29,-41,-193,-234,259,1006,1111,182,-1019,-1461,-993,-293,96,205,189,94,17,-5,-16,-26,-28,-33,-40,-45,-41,-26,-20,-22,-31,-33,-26,-9,5,7,6,2,-4,-16,-36,-45,-38,-32,-38,-58,-81,-108,-132,-147,-145,-134,-123,-117,-109,-95,-82,-72,-67,-61,-62,-64,-65,-69,-63,-68,-75,-80,-73,-65,-71,-79,-85,-83,-76,-72,-78,-96,-110,-106,-83,-44,-18,-25,-50,-67,-67,-62,-68,-76,-78,-43,9,-57,-242,-132,557,1211,921,-285,-1361,-1419,-709,-50,193,185,111,36,15,12,-10,-32,-54,-59,-56,-49,-46,-46,-44,-37,-29,-23,-14,-10,-6,-4,0,-4,-11,-19,-28,-32,-37,-44,-58,-83,-107,-125,-138,-145,-143,-128,-112,-102,-99,-93,-77,-60,-54,-56,-60,-73,-85,-81,-65,-54,-55,-71,-74,-73,-67,-64,-64,-62,-61,-62,-62,-52,-47,-53,-58,-64,-64,-62,-59,-67,-75,-70,-62,-49,-46,-48,-33,-8,8,0,-26,-52,-72,-88,-99,-106,-94,-77,-68,-64,-65,-66,-46,-9,-97,-262,-43,707,1232,730,-538,-1441,-1296,-547,12,177,161,95,24,4,-3,-13,-25,-34,-49,-57,-47,-29,-21,-25,-34,-26,-16,-13,-16,-12,-7,-11,-23,-27,-21,-16,-20,-23,-29,-39,-55,-86,-114,-136,-142,-142,-141,-138,-130,-108,-84,-72,-68,-71,-65,-57,-62,-68,-73,-71,-74,-82,-90,-86,-75,-67,-69,-66,-66,-67,-65,-65,-63,-58,-61,-58,-55,-51,-45,-37,-13,7,6,-26,-65,-97,-111,-113,-108,-96,-89,-93,-92,-81,-61,-56,-24,6,-122,-285,7,779,1194,542,-732,-1478,-1169,-390,109,217,177,95,30,8,-10,-29,-37,-42,-43,-47,-55,-54,-40,-31,-30,-36,-39,-29,-15,-4,-1,-8,-14,-19,-23,-22,-16,-11,-24,-52,-84,-107,-121,-138,-146,-143,-133,-122,-107,-94,-78,-79,-86,-83,-68,-62,-60,-63,-64,-67,-71,-75,-75,-66,-57,-58,-62,-72,-75,-70,-65,-68,-71,-74,-72,-70,-70,-69,-67,-54,-19,15,10,-27,-65,-89,-104,-119,-122,-112,-96,-87,-71,-59,-58,-73,-60,-8,-75,-261,-102,608,1161,724,-498,-1405,-1284,-533,46,214,191,113,36,11,1,-21,-31,-38,-56,-63,-61,-54,-44,-32,-23,-15,-12,-15,-16,-10,-7,-10,-14,-15,-15,-13,-6,1,-6,-26,-65,-104,-142,-161,-162,-151,-144,-137,-135,-126,-109,-90,-75,-66,-59,-55,-63,-75,-81,-77,-74,-75,-78,-79,-76,-71,-64,-56,-58,-62,-60,-54,-55,-63,0
person8,-105,-80,-57,-47,-47,-40,-32,-27,-22,-15,-15,-22,-32,-40,-50,-61,-65,-68,-79,-85,-85,-83,-79,-78,-72,-64,-71,-77,-73,-71,-80,-83,-66,-42,-46,-80,-96,-61,-28,-37,-78,-95,-78,-66,-72,-86,-87,-80,-75,-72,-73,-78,-77,-69,-64,-69,-76,-78,-68,-54,-45,-40,-51,-76,-91,-79,-59,-52,-61,-64,-45,-68,-178,-228,-21,401,686,553,86,-336,-489,-442,-354,-282,-233,-194,-169,-147,-122,-85,-53,-39,-46,-72,-100,-105,-90,-65,-56,-60,-80,-111,-116,-76,-15,23,20,3,-9,-19,-25,-24,-12,6,6,-20,-43,-45,-30,-30,-42,-61,-69,-71,-68,-63,-62,-67,-78,-80,-68,-53,-46,-47,-42,-36,-39,-39,-38,-41,-34,-21,-20,-34,-56,-65,-51,-34,-39,-58,-73,-65,-21,30,38,12,-24,-66,-102,-104,-74,-27,3,3,-11,-35,-58,-64,-50,-49,-61,-60,-43,-45,-128,-209,-100,240,584,619,299,-118,-378,-441,-392,-316,-243,-177,-121,-86,-72,-71,-68,-63,-69,-72,-73,-78,-95,-98,-88,-67,-67,-75,-79,-61,-41,-40,-50,-50,-31,-4,1,-6,-4,-5,-25,-55,-57,-32,-14,-28,-65,-75,-57,-39,-43,-55,-66,-66,-59,-50,-47,-47,-48,-40,-41,-52,-61,-56,-41,-39,-48,-52,-49,-41,-37,-56,-81,-73,-27,-6,-42,-85,-66,-21,-24,-69,-86,-71,-44,-41,-54,-62,-48,-25,-16,-50,-89,-87,-54,-42,-47,-59,-73,-123,-178,-122,131,444,548,331,-48,-323,-409,-379,-311,-236,-172,-123,-102,-87,-78,-74,-70,-64,-63,-65,-79,-88,-91,-88,-84,-82,-81,-65,-46,-38,-52,-55,-30,-3,-12,-50,-66,-56,-53,-71,-75,-70,-74,-85,-80,-62,-52,-58,-54,-37,-47,-83,-92,-66,-44,-44,-47,-47,-42,-47,-54,-60,-76,-61,-42,-69,-113,-82,31,80,9,-86,-111,-80,-61,-55,-53,-68,-83,-79,-64,-74,-96,-85,-56,-32,-28,-39,-57,-69,-75,-65,-56,-68,-82,-62,-41,-84,-151,-77,198,472,466,171,-167,-342,-369,-347,-298,-218,-134,-89,-96,-120,-129,-100,-44,-18,-49,-94,-97,-74,-67,-67,-56,-54,-65,-75,-61,-39,-40,-47,-46,-41,-52,-72,-83,-79,-66,-51,-40,-34,-31,-35,-44,-56,-58,-49,-34,-28,-38,-62,-70,-54,-38,-54,-68,-58,-39,-33,-44,-48,-44,-41,-50,-63,-67,-70,-68,-63,-64,-61,-55,-55,-63,-62,-52,-63,-96,-114,-72,0,28,-5,-40,-52,-66,-80,-88,-102,-128,-114,-38,-2,-91,-196,-102,217,510,530,289,-30,-267,-362,-322,-222,-137,-102,-82,-56,-29,-25,-16,14,56,87,102,103,83,32,-20,-48,-71,-110,-119,-106,-114,-161,-195,-159,-96,-87,-113,-103,-42,-16,-35,-64,-73,-85,-90,-75,-38,-30,-68,-133,-146,-88,-38,-51,-91,-97,-65,-54,-85,-120,-129,-129,-137,-138,-139,-155,-157,-126,-96,-106,-137,-148,-126,-106,-99,-88,-70,-56,-66,-76,-83,-87,-90,-79,-82,-102,-126,-162,-245,-274,-81,322,627,540,139,-248,-433,-439,-361,-269,-205,-164,-134,-100,-82,-86,-86,-69,-61,-60,-60,-66,-77,-78,-71,-69,-70,-66,-51,-37,-34,-38,-35,-30,-36,-40,-39,-42,-57,-66,-58,-49,-55,-66,-65,-54,-50,-56,-61,-63,-61,-49,-31,-26,-31,-45,-51,-49,-38,-39,-51,-53,-45,-29,-28,-39,-61,-62,-47,-37,-47,-65,-78,-83,-84,-83,-75,-72,-75,-80,-79,-73,-61,-49,-60,-95,-121,-109,-80,-64,-80,-88,-90,-169,-280,-192,196,612,650,266,-210,-453,-487,-446,-388,-311,-240,-199,-181,-162,-141,-122,-116,-121,-128,-129,-132,-149,-166,-170,-159,-146,-131,-125,-118,-115,-112,-102,-90,-80,-78,-79,-90,-97,-88,-83,-97,-123,-126,-112,-105,-121,-139,-144,-141,-142,-139,-123,-102,-92,-103,-111,-98,-74,-65,-78,-95,-92,-70,-61,-68,-84,-105,-117,-111,-110,-125,-140,-130,-95,-63,-65,-101,-131,-156,-165,-168,-169,-179,-167,-128,-77,-43,-111,-289,-347,0
person9,-10,16,42,55,68,87,106,102,83,62,50,22,-46,-155,-261,-333,-355,-351,-324,-281,-229,-183,-153,-131,-105,-84,-72,-71,-67,-56,-47,-46,-44,-34,-17,-15,-28,-45,-56,-56,-57,-60,-59,-64,-70,-76,-78,-71,-69,-75,-72,-58,-52,-56,-59,-65,-66,-68,-65,-64,-63,-61,-52,-48,-52,-55,-52,-56,-66,-67,-59,-52,-54,-58,-52,-48,-33,-13,27,71,87,41,-51,-136,-166,-160,-146,-144,-139,-123,-104,-84,-54,-35,-53,-46,71,239,258,-6,-502,-889,-816,-306,256,497,381,164,63,38,5,-17,-18,-20,-28,-42,-41,-27,-13,-16,-21,-20,-4,19,33,47,61,76,87,90,83,77,56,17,-49,-152,-262,-337,-362,-351,-324,-275,-221,-176,-158,-148,-120,-81,-56,-54,-57,-55,-46,-39,-45,-50,-41,-28,-32,-54,-66,-58,-45,-50,-70,-86,-84,-73,-60,-45,-51,-65,-71,-72,-75,-68,-63,-61,-66,-63,-52,-42,-50,-66,-61,-44,-45,-60,-68,-59,-49,-48,-54,-46,-24,2,38,83,91,44,-48,-129,-160,-156,-155,-152,-139,-125,-104,-83,-68,-59,-71,-52,87,275,328,103,-386,-845,-894,-463,114,430,377,174,59,34,19,4,-9,-25,-34,-43,-45,-33,-8,3,0,-12,-8,6,22,42,63,82,90,87,75,54,25,-21,-76,-151,-233,-301,-331,-329,-297,-255,-212,-179,-151,-129,-94,-66,-59,-67,-68,-57,-39,-26,-31,-41,-43,-41,-31,-34,-52,-67,-72,-70,-66,-67,-72,-78,-79,-69,-61,-63,-74,-80,-68,-58,-57,-62,-62,-58,-57,-61,-68,-71,-67,-60,-51,-47,-48,-49,-51,-64,-71,-68,-55,-50,-58,-67,-57,-37,-29,-28,2,54,79,35,-60,-136,-161,-156,-148,-142,-138,-132,-118,-89,-60,-50,-71,-31,103,230,220,-32,-473,-808,-734,-262,246,442,304,102,22,8,2,-3,-16,-37,-46,-38,-31,-28,-23,-19,-22,-19,-2,32,62,65,58,71,93,104,92,68,38,3,-58,-165,-281,-361,-378,-342,-295,-262,-230,-186,-148,-124,-102,-78,-62,-58,-62,-63,-55,-50,-55,-50,-37,-35,-42,-45,-45,-38,-40,-59,-76,-75,-66,-61,-69,-77,-76,-66,-65,-70,-76,-73,-72,-67,-62,-59,-60,-61,-61,-59,-57,-59,-60,-59,-58,-58,-60,-59,-59,-60,-61,-65,-67,-67,-63,-57,-51,-40,-28,-11,31,76,76,9,-89,-156,-164,-148,-136,-131,-128,-122,-106,-81,-57,-52,-69,-21,128,253,204,-93,-551,-840,-681,-164,310,437,268,84,24,1,-28,-23,-12,-17,-29,-34,-30,-33,-41,-32,-18,1,11,20,31,44,63,88,100,92,69,49,30,-5,-78,-184,-286,-356,-375,-347,-310,-263,-216,-178,-141,-106,-85,-75,-69,-60,-54,-51,-46,-42,-38,-48,-50,-39,-30,-29,-40,-63,-78,-70,-58,-58,-70,-88,-96,-85,-78,-77,-73,-71,-65,-59,-63,-72,-69,-65,-66,-67,-60,-51,-46,-56,-61,-52,-41,-51,-73,-80,-64,-45,-48,-57,-54,-49,-55,-62,-64,-57,-52,-43,-25,9,51,80,56,-15,-93,-145,-159,-156,-148,-133,-114,-108,-100,-81,-62,-67,-77,2,190,331,233,-167,-675,-927,-692,-135,334,440,271,96,45,33,7,-9,-25,-49,-59,-52,-37,-30,-17,-5,-9,-22,-17,7,34,39,44,60,80,73,61,50,31,-9,-70,-150,-238,-316,-360,-355,-304,-237,-190,-162,-141,-111,-86,-73,-66,-56,-41,-33,-35,-39,-40,-34,-32,-42,-48,-49,-47,-49,-54,-61,-63,-67,-70,-69,-59,-58,-65,-67,-64,-64,-68,-63,-45,-39,-51,-65,-67,-59,-52,-44,-32,-28,-44,-67,-73,-59,-47,-44,-50,-57,-67,-67,-55,-37,-25,-6,33,78,77,21,-70,-139,-157,-147,-147,-150,-152,-137,-115,-88,-70,-63,-79,-54,88,254,272,11,-483,-874,-813,-320,229,457,350,159,82,69,39,17,3,-13,-17,-21,-22,-37,-48,-41,-23,-3,6,15,29,41,55,67,71,75,75,65,0
person10,-19,4,-14,-45,-45,-34,-45,-55,-58,-59,-47,-30,-26,-34,-54,-68,-73,-72,-75,-77,-68,-50,-44,-44,-27,-29,-82,-148,-147,-59,32,39,-14,-56,-59,-53,-45,-53,-71,-69,-49,-36,-51,-74,-77,-61,-51,-52,-49,-41,-46,-56,-47,-34,-33,-38,-27,-19,-36,-81,-102,-86,-86,-107,-70,26,70,0,-111,-148,-86,-72,-167,-126,264,703,639,-6,-680,-845,-552,-211,-42,30,56,17,-34,-38,-14,5,-12,-48,-74,-78,-72,-58,-45,-36,-43,-50,-49,-42,-41,-30,-13,-3,-19,-38,-42,-41,-50,-46,-20,9,-2,-51,-98,-114,-117,-122,-137,-148,-141,-118,-96,-85,-90,-107,-125,-126,-105,-75,-61,-53,-47,-51,-45,-14,14,6,-41,-88,-91,-36,17,19,-7,-21,-10,-6,-45,-104,-138,-135,-120,-102,-78,-67,-70,-78,-83,-76,-62,-51,-48,-49,-50,-49,-51,-57,-66,-73,-67,-44,-28,-30,-49,-58,-51,-51,-65,-62,-34,7,20,-3,-33,-53,-65,-72,-62,-54,-69,-100,-125,-116,-79,-50,-36,-46,-51,-32,-14,-76,-192,-69,406,780,529,-228,-817,-814,-440,-140,-20,13,-17,-28,98,251,219,-15,-249,-277,-188,-139,-116,-40,32,21,-7,24,48,-34,-162,-134,34,116,19,-136,-192,-133,-64,-48,-64,-73,-72,-88,-118,-154,-169,-168,-153,-136,-124,-114,-93,-67,-51,-37,-42,-102,-125,85,465,605,227,-375,-698,-617,-401,-222,-59,78,115,60,-23,-69,-74,-40,-7,-14,-51,-85,-104,-114,-94,-38,-13,-26,-49,-52,-50,-59,-63,-61,-48,-43,-57,-57,-41,-53,-96,-115,-59,10,-9,-89,-119,-74,-28,-31,-54,-69,-46,-17,-26,-74,-137,-167,-142,-72,10,61,55,-7,-65,-84,-81,-70,-67,-81,-94,-89,-44,-7,-87,-186,69,671,1000,556,-318,-853,-722,-310,-59,13,36,22,5,5,5,-21,-51,-69,-70,-50,-43,-59,-81,-76,-52,-41,-50,-60,-62,-52,-49,-58,-74,-77,-58,-39,-36,-75,-97,-43,-32,-149,-290,-283,-122,12,7,-81,-134,-111,-65,-107,-279,-436,-388,-175,1,20,-29,-41,-26,-37,-60,-79,-81,-45,-17,-24,-54,-72,-69,-63,-66,-74,-77,-67,-58,-56,-57,-58,-52,-32,-3,27,27,16,1,-41,-83,-135,-225,-267,-154,84,252,218,61,-27,-1,25,6,-25,-57,-61,-54,-56,-62,-60,-70,-99,-103,-58,-9,-17,-58,-84,-85,-71,-58,-50,-50,-67,-83,-71,-40,-28,-39,-63,-69,-47,-53,-144,-145,181,639,683,123,-595,-878,-644,-285,-95,-21,29,35,0,-27,-50,-54,-44,-42,-45,-39,-40,-40,-34,-31,-34,-41,-47,-51,-61,-69,-63,-56,-48,-39,-19,7,4,-30,-61,-69,-74,-82,-84,-87,-93,-117,-144,-144,-127,-120,-133,-146,-147,-133,-114,-84,-50,-21,-16,-28,-38,-34,-27,-28,-42,-52,-52,-42,-43,-62,-82,-83,-72,-59,-58,-74,-62,-47,-70,-88,-6,128,187,125,27,-56,-158,-271,-253,-81,91,125,57,-9,-31,-35,-44,-64,-115,-136,-95,-50,-88,-191,-263,-285,-270,-185,-40,63,48,-54,-112,-99,-70,-73,-85,-78,-69,-53,-43,-66,-95,-121,-104,-40,-13,-41,-89,-84,169,635,862,454,-360,-924,-859,-428,-138,-71,-29,-2,-6,14,51,51,-20,-112,-147,-94,-31,-7,-14,-53,-70,-3,117,184,137,13,-62,-31,16,-15,-126,-229,-222,-140,-69,-62,-95,-107,-79,-37,-44,-109,-170,-170,-149,-150,-152,-91,23,91,54,-67,-169,-187,-151,-88,-45,-48,-67,-45,31,110,145,105,1,-73,-93,-92,-102,-113,-110,-118,-197,-314,-327,-238,-162,-105,-52,2,58,77,12,-117,-202,-201,-118,-71,-114,-97,13,81,27,-92,-164,-145,-85,-37,-9,19,3,-56,-72,21,126,92,-7,-1,70,38,-110,-183,-65,59,20,-144,-259,-257,-193,-129,-49,65,137,72,-92,-211,-156,-103,-123,104,583,787,443,-58,-227,-63,78,16,-22,10,-55,-118,-64,-19,-48,0
person11,-55,-50,-48,-48,-53,-62,-65,-63,-62,-56,-35,-7,-1,-11,-29,-42,-51,-66,-83,-77,-70,-67,-72,-49,3,-110,-406,-357,454,1492,1663,678,-584,-1144,-966,-650,-470,-341,-235,-171,-131,-100,-76,-59,-53,-50,-45,-40,-35,-33,-32,-35,-38,-39,-35,-29,-25,-22,-18,-17,-22,-29,-31,-37,-54,-79,-106,-120,-119,-111,-102,-92,-86,-81,-73,-67,-64,-59,-57,-56,-57,-57,-54,-50,-48,-51,-50,-48,-46,-50,-56,-58,-53,-53,-59,-61,-55,-52,-58,-61,-57,-52,-52,-55,-59,-61,-58,-53,-54,-57,-59,-59,-58,-56,-57,-58,-55,-53,-58,-60,-62,-64,-65,-51,-24,-6,-6,-24,-40,-52,-64,-81,-83,-78,-73,-73,-74,-20,-16,-252,-464,-40,1031,1776,1336,35,-997,-1169,-852,-575,-413,-296,-215,-154,-116,-91,-71,-62,-53,-50,-43,-40,-42,-47,-43,-38,-33,-35,-35,-30,-23,-16,-14,-12,-17,-23,-36,-47,-64,-82,-101,-118,-119,-104,-90,-76,-67,-65,-60,-62,-68,-67,-64,-60,-59,-54,-53,-56,-55,-53,-51,-50,-52,-51,-52,-51,-58,-58,-57,-54,-56,-57,-56,-52,-57,-60,-55,-48,-46,-51,-56,-58,-55,-53,-54,-58,-57,-52,-52,-54,-55,-57,-61,-65,-68,-63,-49,-25,-14,-15,-21,-39,-57,-68,-73,-69,-74,-80,-82,-76,-34,-24,-222,-445,-123,823,1555,1233,88,-861,-1022,-729,-492,-375,-273,-194,-138,-102,-79,-68,-62,-58,-53,-42,-34,-34,-39,-43,-36,-12,11,6,-22,-21,12,42,21,-29,-55,-44,-26,-38,-75,-130,-160,-154,-151,-158,-148,-110,-82,-103,-132,-121,-81,-52,-48,-57,-69,-96,-92,-27,-29,-82,48,182,-237,-1173,-1575,-911,-167,-381,-1118,-1101,-191,573,667,494,463,415,258,169,183,231,238,192,162,153,130,86,59,47,36,21,26,54,78,59,6,-46,-69,-71,-74,-71,-66,-67,-72,-78,-59,-24,-142,-383,-269,529,1418,1405,354,-787,-1152,-834,-478,-329,-255,-179,-125,-90,-61,-47,-39,-37,-31,-23,-21,-23,-26,-18,-5,0,-1,2,9,14,22,25,26,13,-1,-12,-25,-58,-93,-128,-151,-167,-167,-155,-130,-104,-83,-68,-64,-62,-57,-45,-40,-46,-49,-47,-36,-27,-24,-34,-47,-60,-62,-53,-43,-35,-39,-54,-62,-67,-56,-12,-27,-108,-55,245,545,519,163,-186,-281,-223,-200,-195,-159,-116,-92,-87,-95,-98,-87,-64,-45,-45,-51,-57,-73,-93,-112,-110,-97,-88,-97,-85,-9,-66,-391,-504,254,1589,2216,1335,-331,-1412,-1424,-974,-635,-455,-333,-227,-146,-124,-119,-67,40,100,50,-51,-115,-95,-4,78,72,29,31,71,130,62,-178,-220,184,718,809,313,-304,-527,-394,-300,-309,-288,-262,-247,-222,-181,-123,-80,-79,-109,-129,-119,-108,-110,-106,-90,-72,-61,-60,-64,-69,-70,-68,-66,-69,-67,-57,-41,-40,-59,-75,-80,-78,-73,-70,-70,-63,-43,-26,-26,-50,-63,-48,-65,-99,-42,129,267,215,5,-169,-195,-147,-122,-119,-128,-126,-96,-51,-33,-47,-72,-84,-89,-106,-122,-123,-110,-98,-105,-81,-16,-123,-444,-421,460,1671,1966,892,-619,-1368,-1195,-781,-533,-394,-284,-198,-143,-115,-94,-78,-65,-57,-51,-46,-40,-38,-30,-28,-30,-34,-34,-31,-18,-7,3,5,5,-4,-11,-21,-33,-61,-95,-123,-136,-138,-136,-126,-108,-91,-80,-76,-74,-69,-59,-43,-36,-43,-55,-60,-61,-58,-57,-57,-57,-62,-62,-53,-37,-37,-47,-58,-61,-63,-61,-59,-53,-54,-64,-72,-71,-63,-61,-58,-58,-57,-47,-47,-58,-64,-68,-68,-71,-60,-32,-10,-3,-20,-32,-33,-46,-66,-76,-76,-79,-84,-78,-28,-31,-278,-497,-21,1196,2096,1651,152,-1122,-1381,-1000,-646,-466,-345,-249,-188,-148,-113,-84,-67,-65,-60,-46,-35,-41,-53,-57,-46,-38,-38,-39,-36,-27,-14,-9,-10,-21,-32,-37,-47,-68,-96,-122,-130,-122,-111,-96,-88,-80,-75,-71,-70,-65,-60,-62,-68,-70,-62,-47,-41,-52,0
person12,-116,-23,-64,-15,27,-18,51,-26,-21,-15,-81,-15,-85,-70,-62,-116,-32,-83,-59,-45,-108,-36,-94,-62,-37,-92,-24,-92,-64,-48,-106,-34,-91,-54,-34,-96,-30,-93,-59,-44,-104,-34,-91,-54,-31,-86,-9,-73,-41,-24,-82,-16,-80,-43,-22,-81,-20,-88,-60,-42,-93,-12,-71,-50,-50,-123,-55,-112,-77,-70,-131,-64,-117,-70,-38,-93,-30,-112,-93,-74,-122,-50,-118,-87,-69,-116,-46,-123,-89,-59,-99,-62,-218,-246,-123,129,515,543,381,84,-199,-221,-312,-280,-260,-293,-205,-249,-202,-183,-232,-150,-200,-148,-128,-168,-81,-136,-89,-79,-141,-76,-149,-118,-113,-169,-97,-151,-94,-71,-106,-22,-67,-15,14,-22,46,-37,-24,-39,-101,-39,-118,-108,-128,-193,-126,-184,-144,-140,-189,-116,-179,-137,-121,-158,-88,-151,-110,-97,-135,-60,-120,-79,-70,-113,-41,-104,-63,-60,-109,-40,-105,-61,-52,-93,-20,-89,-48,-41,-91,-22,-91,-41,-31,-67,8,-61,-28,-30,-76,-13,-81,-33,-29,-71,0,-66,-29,-40,-97,-27,-93,-44,-35,-76,-11,-84,-39,-36,-78,-2,-56,-24,-78,-196,-114,11,362,567,471,284,-69,-196,-253,-291,-192,-226,-160,-146,-171,-90,-145,-91,-81,-107,-14,-60,-1,-4,-48,22,-46,-6,-15,-63,8,-63,-21,-24,-63,14,-40,25,47,28,118,61,112,101,47,96,8,34,11,-41,24,-50,-11,-30,-81,-18,-89,-38,-39,-69,5,-60,-12,-16,-54,8,-71,-28,-41,-75,-5,-69,-18,-25,-57,6,-67,-24,-40,-89,-30,-107,-56,-66,-104,-41,-106,-54,-64,-103,-39,-110,-54,-55,-85,-23,-101,-52,-55,-84,-19,-94,-46,-53,-86,-19,-93,-41,-42,-66,2,-72,-24,-34,-69,-7,-84,-35,-52,-95,-30,-96,-35,-38,-58,2,-124,-167,-192,-41,367,556,592,316,-21,-147,-287,-248,-249,-258,-173,-230,-168,-169,-190,-115,-175,-104,-107,-128,-61,-131,-76,-89,-119,-55,-127,-75,-100,-134,-69,-133,-70,-85,-110,-34,-88,-8,-5,-17,49,-31,11,-16,-60,-14,-98,-48,-67,-93,-33,-114,-65,-83,-108,-45,-121,-67,-89,-119,-62,-132,-77,-97,-125,-61,-125,-65,-83,-109,-45,-111,-52,-74,-102,-39,-105,-43,-60,-82,-17,-87,-27,-48,-75,-17,-93,-38,-64,-83,-11,-85,-32,-58,-81,-20,-95,-40,-60,-77,-16,-92,-40,-72,-103,-40,-104,-29,-41,-59,-7,-93,-43,-70,-92,-34,-114,-65,-93,-109,-47,-126,-73,-90,-109,-84,-240,-232,-131,168,534,522,361,18,-226,-253,-338,-264,-266,-265,-193,-255,-181,-199,-209,-144,-198,-125,-136,-141,-74,-147,-89,-122,-148,-96,-169,-107,-135,-150,-90,-151,-81,-97,-94,-16,-68,10,-5,-16,33,-50,2,-41,-65,-19,-90,-24,-61,-93,-58,-138,-75,-107,-122,-72,-145,-82,-108,-112,-47,-113,-66,-121,-149,-95,-159,-102,-144,-154,-90,-153,-83,-109,-117,-60,-125,-57,-90,-106,-64,-137,-66,-92,-98,-45,-107,-28,-52,-54,-3,-79,-16,-47,-47,6,-74,-25,-66,-77,-23,-91,-12,-36,-43,0,-83,-22,-54,-58,-8,-84,-18,-51,-57,-7,-81,-7,-32,-59,-82,-228,-112,106,432,653,469,247,-58,-206,-204,-273,-181,-190,-185,-123,-179,-95,-117,-111,-52,-104,-22,-37,-20,49,-18,39,-7,-12,33,-46,18,-24,-29,20,-46,39,15,22,77,18,93,55,49,85,4,57,7,-7,30,-48,10,-36,-42,1,-76,-20,-68,-82,-36,-106,-29,-62,-61,-15,-87,-22,-70,-77,-25,-94,-24,-64,-61,-16,-89,-22,-62,-57,-10,-80,-10,-51,-56,-11,-73,4,-40,-44,-3,-72,-2,-50,-56,-20,-84,-12,-57,-62,-23,-90,-21,-67,-61,-20,-98,-43,-92,-86,-36,-101,-25,-68,-58,-15,-84,-37,-109,-130,-87,-148,-70,-110,-96,-48,-117,-43,-73,-74,-85,-240,-176,-33,315,618,542,356,4,-192,-227,-308,-225,-253,-231,-173,-221,-137,-182,-170,-118,-171,-85,-118,0
person13,-132,-111,-100,-89,-78,-62,-50,-49,-46,-45,-41,-39,-44,-45,-37,-27,-28,-46,-58,-65,-60,-56,-58,-56,-53,-54,-63,-65,-58,-59,-61,-63,-62,-59,-64,-68,-58,-50,-46,-52,-53,-50,-42,-34,-36,-47,-52,-48,-45,-54,-66,-64,-53,-32,-13,5,8,-12,-56,-91,-96,-78,-73,-76,-87,-86,-75,-70,-53,-69,-164,-125,278,810,830,138,-673,-918,-579,-206,-93,-103,-89,-64,-58,-56,-53,-49,-37,-31,-33,-37,-45,-35,-26,-18,-16,-16,-18,-15,-9,3,13,27,29,23,10,-4,-18,-53,-100,-149,-188,-202,-202,-193,-173,-152,-125,-102,-83,-69,-56,-48,-45,-47,-43,-41,-38,-42,-44,-44,-49,-55,-56,-56,-59,-69,-70,-71,-68,-74,-75,-64,-59,-61,-68,-70,-59,-54,-52,-52,-59,-59,-63,-64,-64,-64,-55,-53,-46,-43,-54,-60,-62,-60,-55,-57,-55,-57,-60,-55,-53,-48,-56,-59,-40,-13,11,5,-17,-37,-61,-85,-98,-93,-82,-71,-67,-71,-67,-69,-54,-57,-161,-173,191,736,850,262,-528,-840,-593,-261,-141,-133,-110,-87,-64,-54,-49,-39,-38,-38,-35,-30,-23,-30,-40,-44,-32,-17,-18,-21,-19,-4,21,33,37,28,24,22,3,-35,-85,-133,-171,-207,-215,-200,-171,-146,-140,-130,-110,-82,-59,-54,-53,-52,-43,-39,-43,-36,-29,-27,-30,-49,-58,-70,-70,-64,-58,-63,-75,-82,-82,-76,-65,-65,-62,-54,-48,-51,-65,-74,-71,-68,-59,-60,-59,-59,-55,-44,-39,-43,-56,-63,-51,-46,-47,-53,-64,-67,-66,-62,-60,-71,-78,-77,-55,-22,-1,9,-11,-45,-72,-86,-77,-78,-83,-84,-75,-68,-65,-65,-57,-51,-125,-197,36,552,844,477,-294,-784,-691,-346,-152,-118,-97,-76,-68,-56,-46,-36,-41,-41,-29,-19,-15,-20,-31,-29,-20,-5,6,2,-12,-26,-21,1,14,21,7,9,12,-4,-41,-99,-154,-187,-200,-195,-177,-150,-118,-92,-84,-82,-66,-51,-53,-64,-73,-63,-48,-47,-48,-46,-52,-58,-61,-60,-57,-52,-48,-53,-54,-54,-52,-60,-63,-48,-38,-46,-60,-74,-74,-62,-38,-13,-3,-8,-12,1,10,13,1,-32,-68,-78,-73,-57,-40,-23,-29,-51,-84,-103,-76,-19,14,24,31,54,96,155,169,110,3,-88,-96,-26,24,40,24,-18,-54,-51,-35,-37,-131,-191,103,724,1082,689,-163,-729,-656,-297,-107,-76,-42,-2,-9,-30,-17,8,-16,-80,-85,4,81,81,47,29,17,-42,-131,-175,-154,-97,-71,-58,-39,-75,-311,-778,-1271,-1508,-1409,-1111,-805,-567,-401,-288,-201,-139,-89,-47,-21,-5,-1,6,16,30,42,41,42,42,37,36,31,26,22,23,25,23,25,31,37,24,0,-14,-17,-20,-20,-14,0,8,0,5,21,27,45,81,142,238,316,281,136,0,-39,-8,-43,-164,-236,-185,-43,78,106,76,73,62,-21,-113,-89,60,205,218,97,-55,-138,-93,17,123,176,224,263,193,28,-69,-80,-86,44,463,904,817,90,-657,-785,-398,-61,14,-1,18,54,60,53,43,5,-46,-99,-105,-46,12,20,-20,-74,-106,-129,-157,-179,-153,-93,-43,-23,-46,-74,-81,-72,-59,-74,-138,-253,-383,-434,-384,-269,-143,-65,-49,-82,-100,-94,-103,-97,-76,-57,-81,-151,-199,-165,-82,-17,-13,-56,-123,-156,-149,-128,-102,-83,-86,-111,-143,-154,-143,-120,-112,-115,-117,-113,-94,-64,-34,-26,-26,-2,17,-12,-99,-164,-140,-62,-4,15,-1,-71,-161,-196,-148,-85,-74,-104,-126,-114,-84,-37,8,11,-26,-81,-104,-101,-103,-80,-29,26,40,6,-28,-24,12,49,-6,-123,-33,405,797,605,-110,-729,-789,-455,-194,-135,-162,-200,-206,-140,-41,26,43,33,23,5,-56,-117,-126,-90,-56,-56,-58,-20,19,36,36,36,42,30,-10,-52,-37,21,33,-46,-173,-247,-221,-155,-99,-47,-30,-79,-142,-153,-105,-59,-65,-108,-143,-150,-132,-67,16,46,-4,0
person14,-45,-82,-103,-85,-70,-80,-98,-95,-87,-99,-116,-98,-30,24,20,-27,-58,-55,-41,-50,-76,-95,-96,-71,-32,-3,-5,-27,-57,-70,-74,-79,-83,-83,-90,-102,-106,-94,-78,-77,-99,-114,-102,-71,-54,-46,-42,-35,-26,-35,-60,-70,-45,-18,-21,-33,-36,-33,-33,-44,-42,-33,-49,-84,-98,-84,-67,-65,-81,-92,-83,-65,-51,-42,-22,6,-64,-246,-89,708,1495,1251,-63,-1339,-1584,-965,-303,-7,77,92,65,44,31,-1,-19,-18,-17,-28,-42,-52,-48,-56,-72,-73,-49,-19,8,24,31,33,38,43,41,25,15,10,-3,-26,-56,-90,-123,-149,-183,-227,-267,-282,-256,-215,-176,-155,-141,-123,-93,-53,-33,-37,-47,-43,-33,-24,-19,-9,-2,-6,-21,-37,-48,-69,-99,-118,-104,-77,-55,-47,-39,-29,-39,-73,-93,-75,-39,-27,-42,-55,-42,-29,-35,-37,-23,-21,-50,-89,-93,-64,-48,-65,-85,-75,-47,-26,-20,-12,-7,-16,-42,-56,-54,-49,-56,-46,-10,13,-20,-87,-125,-112,-97,-102,-114,-118,-116,-102,-81,-72,-68,-37,-60,-216,-196,444,1328,1420,331,-1060,-1604,-1166,-477,-89,52,95,81,47,35,14,-11,-28,-38,-45,-44,-36,-27,-30,-45,-59,-64,-56,-36,-22,-4,15,37,48,56,51,37,16,-2,-20,-52,-109,-165,-201,-222,-230,-230,-219,-204,-194,-194,-180,-146,-106,-78,-75,-79,-78,-64,-48,-45,-41,-33,-12,1,-5,-22,-39,-51,-66,-82,-88,-84,-76,-71,-72,-72,-74,-67,-55,-46,-51,-59,-64,-65,-67,-71,-61,-51,-51,-67,-76,-66,-49,-47,-53,-57,-54,-49,-53,-58,-40,-14,-2,-6,-18,-22,-31,-53,-52,-27,-24,-46,-52,-17,33,32,-33,-112,-154,-154,-127,-94,-74,-71,-77,-85,-88,-71,-16,9,-126,-242,196,1147,1630,854,-650,-1608,-1443,-719,-191,7,63,29,-36,-44,-27,-20,-26,-39,-53,-58,-56,-51,-48,-37,-22,-9,-9,-15,-25,-10,31,79,85,64,54,62,51,6,-45,-69,-77,-105,-155,-201,-223,-225,-219,-206,-176,-141,-121,-122,-123,-111,-87,-69,-54,-38,-30,-32,-44,-51,-50,-42,-49,-70,-85,-85,-77,-67,-64,-63,-60,-49,-50,-66,-82,-91,-91,-83,-64,-35,-28,-47,-68,-57,-30,-28,-54,-71,-62,-53,-73,-93,-82,-56,-30,-18,-9,-14,-30,-52,-57,-45,-28,-45,-85,-94,-33,43,55,-10,-73,-68,-42,-56,-119,-190,-228,-211,-161,-114,-83,-65,-44,-9,8,5,-4,10,-18,-211,-309,227,1223,1606,711,-769,-1556,-1255,-548,-101,61,124,98,24,-10,-21,-23,-26,-45,-70,-75,-54,-44,-62,-85,-84,-67,-55,-65,-68,-40,3,40,59,64,69,52,26,3,4,10,-3,-45,-105,-161,-202,-230,-243,-240,-234,-224,-204,-149,-81,-38,-32,-47,-57,-58,-57,-62,-90,-131,-156,-135,-89,-64,-72,-77,-68,-48,-37,-54,-74,-74,-59,-46,-54,-74,-75,-57,-47,-61,-89,-91,-59,-32,-47,-86,-110,-102,-67,-38,-36,-52,-69,-67,-49,-39,-45,-45,-42,-52,-53,-38,-30,-40,-59,-46,-14,-23,-76,-108,-79,-33,-41,-89,-119,-109,-81,-56,-44,-45,-53,-45,-39,-44,-47,-8,-2,-149,-151,452,1332,1449,380,-1019,-1603,-1200,-527,-123,61,150,120,44,-2,-18,-22,-26,-38,-54,-48,-31,-23,-36,-44,-20,26,42,23,-6,-12,-13,-5,9,23,28,19,10,9,8,-9,-47,-105,-163,-210,-233,-247,-258,-256,-231,-190,-153,-124,-92,-72,-69,-80,-76,-65,-68,-88,-91,-70,-49,-43,-38,-21,-10,-26,-59,-75,-70,-65,-64,-67,-71,-82,-88,-77,-57,-47,-55,-79,-81,-61,-40,-25,-8,1,4,4,4,3,-6,-34,-55,-55,-57,-54,-36,-44,-86,-129,-125,-84,-52,-50,-48,-39,-36,-38,-29,-24,-49,-96,-125,-106,-69,-39,-25,-34,-52,-69,-73,-66,-43,-5,-31,-214,-257,326,1269,1511,512,-940,-1628,-1261,-551,-125,24,73,34,-15,-23,-20,-36,0
person15,-296,-105,-12,14,111,316,448,312,-11,-285,-385,-316,-147,33,139,144,58,-29,-83,-146,-209,-213,-175,-173,-147,31,352,593,553,288,35,-21,27,29,0,-21,-26,-33,-128,-360,-699,-862,-571,-2,309,75,-328,-446,-355,-244,0,406,649,442,44,-121,-79,-179,-432,-490,-235,88,216,102,-96,-161,-36,119,124,21,-27,-46,-80,-54,-27,-176,-409,-193,614,1160,717,-331,-939,-728,-231,2,-33,-74,-55,-31,-5,-29,-108,-196,-269,-284,-227,-123,14,177,311,328,249,131,0,-39,115,352,387,122,-259,-499,-557,-592,-521,-275,-86,-7,120,313,392,307,223,161,-19,-333,-460,-281,-204,-391,-497,-277,32,69,-123,-308,-352,-244,1,340,605,555,173,-264,-498,-505,-396,-288,-195,-71,-4,-75,-157,-200,-250,-318,-372,-328,-109,117,145,20,-63,-91,-119,-149,-129,7,87,-52,-118,107,369,355,129,-31,-17,44,17,-17,-4,-49,-112,-74,-17,-51,-140,-122,10,93,57,19,30,4,-104,-222,-259,-158,65,309,430,356,164,-21,-116,-128,-55,34,-22,-137,18,397,419,-204,-912,-1011,-499,51,265,294,258,146,35,13,10,-76,-168,-164,-89,-21,-51,-149,-216,-191,-97,-28,-24,-53,-35,43,102,92,52,6,-85,-214,-280,-230,-128,-76,-57,-13,49,76,68,24,-96,-285,-401,-355,-201,-87,-92,-155,-175,-130,-95,-153,-247,-288,-206,-36,103,154,135,58,-65,-172,-192,-149,-104,-102,-114,-88,-66,-134,-251,-287,-212,-109,-46,-38,-57,-81,-107,-112,-78,-47,-20,4,31,52,22,-9,9,23,8,35,-263,-1471,-3077,-3785,-3066,-1827,-1414,-1854,-2261,-2293,-2088,-1424,-66,1348,2046,2019,1819,1802,1740,1446,1082,804,594,400,251,188,159,81,-55,-170,-147,28,68,-149,-127,584,1536,1731,842,-341,-797,-452,29,223,207,203,257,303,298,298,323,297,203,104,42,35,81,125,137,128,83,10,-141,-347,-417,-252,-40,48,78,134,173,116,-50,-176,-165,-102,-46,-14,-17,-37,-97,-225,-372,-437,-362,-178,24,165,225,155,-66,-301,-402,-367,-211,34,286,384,249,-20,-210,-229,-166,-85,9,85,116,118,137,151,93,-49,-166,-161,-109,-115,-130,-69,34,76,41,3,19,54,42,-13,-74,-148,-182,-154,-114,-111,-135,-126,-66,-72,-231,-367,-262,-20,82,-1,-46,69,184,145,5,-81,-54,19,77,44,-98,-249,-311,-295,-263,-239,-187,-75,69,154,108,-31,-159,-264,-364,-220,351,906,756,-91,-878,-963,-498,-16,232,285,203,88,49,56,13,-49,-62,-29,-3,8,38,79,89,48,-25,-65,-55,-33,-32,-52,-34,39,76,7,-111,-174,-156,-94,-34,-16,-68,-216,-353,-346,-265,-271,-367,-392,-251,-45,9,-65,-105,-82,-90,-163,-236,-208,-85,36,65,20,-44,-77,-85,-96,-94,-36,47,93,30,-121,-254,-249,-124,-2,43,27,5,-8,0,30,47,8,-69,-95,-50,-4,-27,-89,-62,50,126,103,33,-21,-56,-57,-10,32,8,-37,-24,11,-68,-199,-205,-88,-11,-6,23,59,7,-109,-173,-114,-23,-9,-40,-43,-55,-53,16,78,45,-56,-129,-92,32,131,64,-164,-243,133,669,655,-81,-857,-993,-567,-155,-26,-22,-32,-52,-56,-41,-51,-58,-29,-2,-22,-65,-76,-48,-42,-54,-54,-79,-145,-212,-277,-375,-431,-349,-179,-50,-11,-11,-1,-8,-47,-76,-85,-101,-123,-159,-173,-129,-88,-135,-224,-241,-166,-59,4,-6,-45,-94,-126,-119,-116,-162,-219,-220,-147,-60,-34,-45,-25,27,52,25,-16,-32,-9,53,112,90,19,23,120,176,101,-2,6,106,147,101,46,8,-30,-76,-82,-7,65,50,-46,-112,-108,-63,-29,-35,-43,-35,-13,68,149,140,37,-19,76,215,207,65,-68,-66,46,104,-108,-524,-765,-670,-420,-210,-102,-66,-132,-261,-295,-186,-156,-346,-392,142,970,1240,545,-510,-1001,-766,-307,37,278,0
person16,-157,-135,-117,-115,-114,-98,-74,-50,-33,-27,-18,0,20,23,14,8,14,17,14,10,7,-3,-20,-39,-57,-74,-86,-100,-106,-105,-97,-91,-77,-75,-71,-74,-80,-95,-101,-102,-89,-73,-63,-62,-59,-62,-67,-82,-84,-77,-64,-63,-74,-88,-98,-96,-86,-86,-99,-102,-81,-58,-59,-69,-73,-74,-84,-88,-73,-57,-53,-65,-72,-63,-44,-25,-5,7,0,-31,-69,-88,-86,-92,-94,-74,-35,-31,-200,-414,-113,799,1529,1251,171,-747,-943,-742,-623,-560,-394,-237,-163,-126,-102,-72,-46,-31,-19,-7,8,27,33,17,14,26,38,26,1,-10,1,11,3,-14,-16,-3,13,5,-21,-45,-65,-78,-91,-107,-114,-116,-117,-116,-114,-101,-92,-93,-97,-92,-78,-66,-57,-51,-46,-51,-51,-51,-56,-66,-77,-79,-66,-53,-57,-79,-82,-67,-57,-64,-73,-80,-86,-89,-88,-97,-100,-93,-68,-52,-61,-86,-92,-82,-77,-82,-77,-67,-48,-31,-16,-9,-2,-6,-17,-29,-32,-36,-44,-57,-77,-90,-84,-58,-36,-35,-51,-60,-57,-50,-52,-69,-89,-90,-69,-54,-51,-38,-18,-10,-18,-43,-63,-78,-82,-61,-36,-29,-113,-270,-189,345,972,1049,440,-304,-632,-558,-430,-385,-307,-190,-107,-59,-41,-40,-28,-10,-6,-16,-25,-26,-19,-18,-33,-43,-48,-53,-64,-73,-72,-66,-64,-60,-53,-43,-49,-53,-56,-58,-73,-93,-114,-124,-125,-121,-131,-136,-127,-126,-126,-107,-88,-90,-109,-107,-70,-42,-46,-60,-55,-51,-54,-64,-76,-98,-127,-140,-134,-104,-83,-84,-105,-105,-72,-51,-67,-106,-129,-117,-110,-108,-94,-68,-48,-39,-48,-75,-97,-101,-96,-86,-82,-71,-66,-86,-108,-104,-80,-77,-84,-75,-52,-45,-65,-76,-64,-51,-32,3,46,63,46,31,35,44,32,-2,-41,-70,-90,-97,-98,-104,-107,-73,-39,-104,-219,-97,360,758,650,107,-376,-492,-385,-314,-283,-174,-27,68,84,22,-57,-95,-95,-81,-65,-66,-70,-69,-63,-47,-29,-29,-59,-108,-183,-261,-297,-273,-228,-189,-169,-122,-59,-39,-83,-134,-149,-144,-156,-160,-137,-81,-29,-4,3,-1,13,50,78,78,76,86,79,38,-1,-13,-17,-34,-48,-33,-17,-32,-55,-64,-79,-99,-102,-76,-52,-44,-51,-54,-42,-40,-70,-113,-134,-124,-106,-106,-124,-124,-99,-71,-54,-41,-39,-50,-75,-86,-89,-97,-100,-92,-64,-39,-23,-9,13,17,10,-7,-11,-18,-4,24,46,55,56,31,-15,-57,-67,-58,-64,-85,-86,-65,-111,-252,-227,207,775,882,363,-286,-532,-405,-270,-268,-257,-183,-112,-76,-49,-12,28,51,38,16,5,1,-12,-48,-76,-88,-92,-93,-84,-59,-31,-22,-30,-27,-20,-13,5,27,28,-13,-89,-164,-204,-200,-182,-165,-164,-163,-135,-102,-82,-74,-75,-90,-109,-123,-118,-102,-86,-77,-78,-81,-93,-110,-119,-116,-126,-130,-107,-60,-28,-26,-27,-3,33,46,43,45,43,37,31,29,26,6,-21,-42,-44,-46,-70,-109,-155,-187,-207,-227,-236,-237,-226,-212,-205,-199,-161,-100,-33,12,47,90,130,150,151,135,101,41,-36,-96,-120,-122,-124,-124,-101,-105,-279,-380,101,1026,1504,946,-149,-825,-804,-582,-520,-478,-333,-215,-160,-121,-76,-37,-25,-43,-61,-47,-8,21,11,-37,-63,-43,-15,-26,-64,-86,-73,-45,-22,-24,-47,-68,-92,-123,-152,-160,-158,-175,-212,-225,-181,-107,-47,-21,-11,8,46,84,89,57,-2,-47,-72,-96,-132,-164,-178,-170,-164,-163,-166,-160,-145,-120,-95,-74,-61,-34,4,38,63,85,107,124,119,84,30,-22,-64,-111,-162,-207,-217,-204,-188,-181,-170,-150,-131,-108,-81,-56,-32,6,46,79,90,88,90,89,64,24,-11,-52,-105,-168,-203,-200,-182,-158,-136,-78,-83,-344,-497,159,1460,2174,1463,-46,-1047,-1096,-797,-665,-567,-383,-226,-145,-113,-106,-98,-88,-92,-102,-103,-101,-96,-95,-107,-124,-128,-119,-110,-113,-115,-89,0
person17,311,709,596,79,-372,-502,-459,-429,-374,-268,-163,-82,-40,-25,-11,22,62,107,135,111,59,45,64,71,23,-39,-48,-26,-27,-50,-50,-14,18,23,6,-8,-7,-15,-24,-29,-34,-44,-63,-85,-89,-98,-130,-164,-142,-82,-48,-60,-97,-119,-129,-127,-114,-84,-55,-68,-100,-108,-94,-85,-82,-84,-71,-73,-108,-149,-129,-82,-61,-46,-21,-14,-36,-62,-45,2,23,-2,-32,-49,-85,-111,-105,-72,-44,-49,-65,-50,-94,-193,-98,340,801,810,312,-251,-493,-480,-445,-407,-333,-272,-234,-184,-138,-116,-118,-117,-101,-80,-76,-82,-95,-108,-109,-101,-115,-146,-147,-113,-73,-50,-33,-9,6,-3,-15,-7,5,1,-9,-15,-8,3,-12,-36,-50,-50,-42,-44,-71,-101,-96,-71,-62,-85,-122,-130,-94,-58,-70,-136,-177,-131,-22,83,121,83,13,-55,-83,-59,-14,0,-14,-9,14,33,16,-32,-68,-81,-91,-90,-71,-73,-107,-136,-140,-129,-130,-105,-57,-100,-239,-218,157,635,749,397,-69,-305,-336,-352,-380,-341,-241,-172,-158,-167,-146,-114,-105,-117,-103,-65,-35,-41,-61,-55,-40,-67,-125,-170,-162,-113,-62,-34,-37,-59,-95,-127,-140,-158,-181,-185,-175,-176,-186,-175,-147,-112,-93,-89,-82,-74,-82,-81,-70,-71,-80,-90,-72,-12,62,115,139,152,163,154,109,54,26,5,-21,-48,-79,-89,-62,-41,-57,-80,-68,-22,2,-32,-69,-66,-55,-87,-119,-113,-68,-28,-51,-104,-108,-48,-24,-107,-176,-36,272,453,342,39,-226,-350,-352,-304,-230,-161,-125,-146,-173,-161,-123,-110,-132,-150,-132,-91,-76,-68,-49,-38,-64,-109,-140,-140,-111,-99,-119,-119,-69,-8,25,61,86,79,44,27,81,149,142,91,69,68,37,-16,-15,39,65,28,-19,0,41,26,-21,-47,-54,-80,-98,-62,-15,-15,-57,-31,113,290,406,438,415,388,380,380,365,334,279,206,131,78,76,89,93,86,68,51,16,-35,-73,-59,-5,-7,-129,-237,-170,38,136,-5,-272,-489,-533,-437,-385,-512,-745,-854,-732,-529,-462,-519,-531,-472,-382,-296,-230,-165,-63,33,26,-128,-315,-406,-383,-363,-393,-445,-482,-512,-526,-503,-453,-407,-395,-392,-361,-288,-201,-155,-139,-105,-36,17,25,25,34,34,24,24,43,68,66,62,56,71,99,137,170,176,159,150,139,118,110,130,155,163,149,124,102,97,102,123,126,99,72,69,86,84,25,-24,22,165,251,154,37,200,607,848,616,62,-408,-609,-647,-651,-598,-503,-413,-333,-244,-141,-63,-46,-60,-40,-9,-7,-26,-37,-47,-70,-99,-110,-95,-92,-101,-78,-23,30,51,29,-7,-30,-33,-36,-80,-156,-196,-157,-82,-51,-65,-60,-11,39,53,39,8,-20,-4,37,34,-19,-60,-43,2,-9,-81,-129,-119,-99,-117,-168,-166,-64,45,41,-44,-82,-33,1,-44,-78,-24,25,-27,-88,-50,38,42,-32,-69,-35,-38,-118,-110,113,432,557,345,-13,-277,-394,-443,-471,-459,-399,-303,-211,-165,-154,-120,-19,71,80,60,77,63,-36,-136,-146,-95,-79,-128,-166,-160,-177,-241,-272,-246,-215,-215,-228,-219,-189,-174,-172,-146,-114,-111,-109,-109,-125,-138,-133,-116,-119,-155,-192,-188,-160,-144,-138,-131,-120,-111,-105,-86,-39,17,58,61,49,40,36,31,23,19,20,31,47,53,42,22,18,22,21,13,19,42,-28,-171,-118,282,716,722,260,-251,-446,-382,-300,-270,-242,-204,-170,-154,-172,-174,-140,-100,-112,-120,-58,45,79,37,-21,-47,-61,-94,-117,-102,-65,-17,20,39,43,50,51,40,29,15,-18,-75,-118,-113,-80,-72,-86,-86,-92,-109,-108,-75,-18,12,-3,-40,-77,-105,-113,-101,-109,-142,-151,-141,-129,-123,-117,-106,-104,-119,-125,-118,-106,-92,-54,-1,32,28,-3,-52,-93,-128,-149,-154,-158,-235,-372,-350,-21,399,513,230,-169,-379,-388,-336,-291,-251,-231,-220,-198,-172,-154,0
person18,-82,-71,-15,-77,-195,-171,-25,141,239,182,2,-130,-109,7,115,71,-89,-205,-290,-306,-186,-94,-149,-192,-122,-14,89,150,152,69,-86,-172,-114,-116,-267,-241,94,346,248,3,-31,139,146,-169,-470,-476,-281,-156,-216,-324,-297,-178,-125,-158,-137,-64,-29,-23,0,11,-72,-161,-93,130,309,300,177,127,192,303,367,324,165,-13,-86,-66,-54,-165,-389,-559,-529,-330,-153,-91,-131,-220,-250,-141,30,61,-74,-145,-13,159,154,2,-121,-172,-180,-155,-241,-405,-230,438,1071,1012,296,-426,-705,-674,-648,-572,-317,-71,-77,-315,-416,-153,189,235,20,-146,-172,-184,-196,-162,-95,-48,-54,-98,-164,-177,-70,78,118,24,-83,-93,-51,-35,-65,-87,-54,-25,-70,-116,-74,58,155,84,-103,-270,-358,-383,-300,-130,24,89,74,47,32,21,25,74,97,37,-40,-57,-40,-25,-57,-98,-88,-23,33,28,-27,-94,-113,-105,-114,-126,-121,-129,-185,-242,-212,-110,-43,-58,-51,36,111,65,-59,-149,-149,-124,-111,-107,-94,-60,-14,5,-7,-35,-47,-46,-52,-50,-20,26,40,-12,-74,-99,-126,-188,-199,-84,52,78,23,-24,1,8,-171,-395,-171,630,1372,1283,373,-572,-910,-780,-596,-471,-335,-223,-138,-83,-65,-46,-3,19,-10,-74,-111,-69,20,69,48,-7,-46,-64,-74,-73,-47,-17,0,24,61,89,65,7,-47,-69,-89,-111,-101,-73,-104,-177,-237,-260,-239,-194,-107,15,78,81,125,194,207,119,-33,-147,-149,-95,-160,-358,-421,-178,151,186,-56,-206,-119,-2,-39,-159,-244,-268,-236,-168,-68,55,174,310,482,626,604,291,-187,-404,-143,253,324,14,-340,-417,-272,-158,-216,-314,-221,2,119,78,1,-6,11,-16,-61,-70,-125,-181,-98,-21,-77,-128,-28,118,103,-51,-144,-138,-164,-155,-100,-182,-185,344,1208,1509,771,-354,-887,-701,-413,-322,-263,-173,-124,-152,-204,-182,-122,-137,-214,-240,-188,-115,-69,-45,-37,-43,-57,-86,-123,-132,-61,51,79,-17,-118,-131,-138,-206,-254,-225,-141,-85,-96,-144,-187,-213,-193,-138,-111,-125,-129,-109,-72,-44,-37,-49,-64,-68,-39,16,88,142,144,122,92,86,65,-6,-48,-37,-34,-95,-188,-224,-168,-87,-61,-89,-118,-135,-126,-104,-91,-71,-29,-1,-23,-101,-146,-124,-115,-147,-133,-56,-18,-80,-166,-167,-92,-25,-10,-31,-79,-120,-121,-100,-58,-3,56,77,-9,-166,-248,-192,-105,-60,-130,-328,-277,343,1130,1298,603,-345,-800,-661,-437,-399,-436,-473,-470,-360,-247,-176,-72,50,97,60,-9,-86,-218,-357,-337,-69,229,256,34,-179,-207,-67,112,221,204,110,24,-61,-168,-265,-272,-182,-127,-176,-213,-173,-121,-120,-108,2,172,242,159,49,13,-5,-93,-200,-170,-27,32,-58,-148,-137,-84,-56,-46,-4,69,94,54,4,-34,-65,-92,-120,-99,-7,68,54,-3,-32,-38,-57,-111,-161,-168,-131,-82,-48,-54,-88,-94,-63,-52,-83,-98,-44,24,-20,-177,-282,-226,-74,25,25,4,11,-3,-62,-143,-195,-169,-83,-22,-27,-59,-53,-12,-118,-357,-225,514,1257,1223,417,-446,-804,-732,-554,-387,-255,-196,-116,5,28,-64,-152,-178,-168,-128,-37,38,29,-35,-61,-25,21,68,99,80,25,-9,-8,-7,-24,-45,-68,-102,-123,-124,-121,-136,-185,-205,-124,19,90,33,-78,-80,51,177,183,120,60,22,15,11,-65,-192,-287,-258,-120,-18,-40,-108,-124,-87,-60,-72,-75,-34,17,-3,-81,-119,-80,-11,47,55,9,-70,-132,-95,51,190,211,78,-103,-198,-158,-79,-61,-98,-141,-141,-83,-10,49,54,-2,-73,-133,-204,-316,-389,-296,-48,163,159,21,-31,68,154,89,-63,-119,2,124,-77,-446,-290,570,1289,1022,-26,-870,-965,-662,-464,-367,-231,-123,-59,-27,-66,-143,-190,-168,-90,-24,-64,-169,-197,-139,-76,-58,-74,-94,-92,-64,-15,68,141,140,93,73,89,61,0
person19,-55,-54,-58,-60,-58,-57,-58,-64,-65,-57,-51,-47,-50,-52,-53,-53,-53,-54,-57,-60,-61,-58,-52,-44,-47,-52,-57,-56,-52,-49,-56,-65,-67,-54,-38,-33,-48,-62,-69,-62,-52,-50,-40,-24,-8,1,-3,-14,-30,-59,-95,-114,-117,-128,-132,-108,-52,-25,-115,-102,334,921,877,-27,-1009,-1192,-618,-39,98,6,-40,-32,-27,-39,-59,-53,-26,-28,-54,-61,-49,-46,-58,-46,-10,-7,-49,-87,-83,-59,-52,-43,0,50,35,-38,-79,-46,14,27,15,34,75,72,5,-90,-155,-162,-136,-155,-197,-199,-128,-85,-117,-163,-169,-126,-77,-72,-81,-92,-71,-34,-42,-102,-128,-58,12,-25,-102,-126,-77,-30,-55,-141,-179,-115,-21,1,-28,-65,-65,-62,-100,-95,-21,-3,-59,-91,-61,-5,11,-45,-91,-88,-60,-27,-12,-55,-99,-69,-6,15,-23,-85,-119,-97,-55,-9,17,-16,-55,-35,1,-1,-46,-83,-74,-57,-51,-34,1,7,-5,8,-4,-51,-75,-77,-70,-80,-118,-120,-91,-77,-106,-105,195,782,1043,448,-610,-1187,-934,-335,10,30,-16,-54,-71,-50,-42,-70,-81,-61,-11,12,-9,-56,-69,-47,-34,-40,-28,-20,-29,-13,45,72,23,-33,-43,-15,14,22,31,39,21,11,16,5,-32,-72,-89,-114,-153,-196,-261,-286,-249,-198,-183,-210,-230,-212,-146,-124,-149,-135,-73,-35,-40,-78,-118,-113,-71,-19,-9,-70,-166,-196,-129,-50,-49,-134,-221,-239,-181,-101,-57,-26,23,62,58,15,-31,-55,-66,-68,-65,-20,43,58,28,-26,-163,-373,-498,-426,-257,62,350,-141,-1739,-3410,-3551,-1895,99,1110,1217,1181,1152,973,764,650,569,492,432,395,354,298,265,272,272,182,41,-19,32,139,158,-3,5,575,1278,1143,-47,-1272,-1454,-695,51,264,196,130,112,144,193,182,115,72,92,110,72,16,-23,-15,-4,-6,-4,23,35,25,7,6,19,30,40,56,71,72,64,57,54,55,60,60,36,-17,-70,-105,-130,-160,-189,-217,-249,-262,-243,-211,-198,-177,-128,-73,-56,-67,-68,-57,-51,-43,-35,-41,-65,-97,-111,-80,-54,-55,-69,-75,-68,-65,-76,-80,-66,-50,-66,-79,-76,-60,-45,-43,-42,-34,-34,-40,-47,-39,-31,-46,-63,-60,-46,-50,-61,-38,4,-2,-83,-167,-181,-135,-81,-30,54,123,86,-43,-145,-158,-121,-94,-102,-116,-95,-50,-11,-31,-105,-167,-189,-183,-175,-171,-130,-46,5,-16,-174,-410,-220,694,1494,1031,-499,-1652,-1451,-443,206,251,190,133,9,-32,5,-54,-242,-396,-382,-275,-264,-357,-404,-331,-187,-33,64,93,71,12,-39,0,100,129,56,3,22,40,31,28,84,144,108,50,47,52,7,-88,-202,-265,-241,-223,-253,-256,-251,-260,-262,-239,-186,-152,-175,-214,-187,-107,-57,-59,-103,-161,-149,-89,-64,-86,-112,-99,-56,-31,-47,-66,-66,-81,-97,-81,-56,-60,-96,-121,-91,-43,-34,-56,-81,-90,-73,-31,-1,25,66,85,8,-134,-235,-209,-114,-69,-102,-111,-75,-72,-119,-150,-63,141,280,175,-111,-335,-339,-193,-65,-40,-76,-116,-126,-80,-4,10,-89,-210,-248,-203,-142,-105,-56,-51,-149,-26,639,1260,793,-735,-1970,-1780,-585,326,430,180,17,-32,-51,-69,-66,-36,-17,-35,-67,-78,-75,-76,-86,-97,-104,-94,-50,-13,-31,-84,-121,-102,-73,-80,-88,-57,-12,7,-13,-31,-10,19,35,39,23,-38,-117,-134,-78,-50,-124,-248,-311,-270,-147,-25,-3,-73,-142,-129,-33,78,130,49,-91,-130,-52,6,-54,-146,-144,-70,-21,-42,-79,-100,-100,-55,-44,-163,-357,-451,-333,-152,-110,-216,-306,-289,-231,-156,-49,15,-29,-129,-181,-194,-224,-267,-254,-180,-89,-16,34,60,75,84,84,77,76,74,51,22,18,26,32,40,54,60,69,60,22,-21,-38,-38,-39,-74,-122,-148,-134,-80,-15,-66,-24,546,1310,1177,-199,-1687,-1904,-888,137,391,218,113,90,72,0
person20,-36,-35,-37,-45,-54,-55,-57,-62,-63,-55,-49,-47,-44,-43,-43,-44,-49,-48,-49,-52,-58,-53,-38,-37,-45,-50,-54,-54,-64,-70,-71,-57,-48,-49,-53,-53,-50,-49,-59,-62,-62,-50,-45,-43,-45,-48,-44,-43,-45,-47,-49,-47,-40,-37,-46,-53,-39,-13,1,-10,-25,-28,-38,-60,-87,-93,-76,-58,-56,-55,-47,-33,-2,-69,-313,-329,314,1221,1430,594,-525,-1006,-792,-484,-370,-311,-225,-162,-122,-110,-106,-94,-73,-60,-60,-62,-59,-57,-50,-45,-43,-46,-45,-39,-36,-31,-25,-16,4,17,22,10,-1,-3,-8,-40,-100,-162,-201,-214,-200,-182,-156,-129,-106,-91,-75,-62,-53,-48,-47,-42,-41,-36,-34,-39,-44,-51,-52,-48,-47,-45,-45,-49,-46,-48,-45,-46,-55,-61,-59,-52,-47,-52,-56,-58,-54,-47,-46,-44,-44,-46,-51,-54,-52,-49,-44,-43,-47,-56,-56,-50,-39,-35,-41,-45,-45,-43,-43,-43,-45,-50,-56,-59,-58,-55,-57,-61,-67,-61,-32,2,12,-11,-39,-52,-56,-61,-74,-83,-80,-84,-86,-82,-68,-12,-19,-256,-408,94,1087,1593,967,-249,-1006,-961,-634,-450,-347,-241,-179,-139,-109,-81,-57,-49,-47,-48,-41,-34,-27,-24,-31,-32,-35,-28,-19,-16,-17,-24,-19,-4,19,27,20,7,1,-6,-35,-88,-143,-179,-192,-192,-179,-152,-125,-104,-83,-70,-63,-64,-63,-60,-54,-50,-43,-37,-39,-43,-44,-48,-54,-58,-55,-46,-41,-39,-40,-47,-48,-59,-63,-58,-55,-52,-50,-49,-51,-54,-50,-47,-41,-40,-47,-42,-42,-46,-51,-61,-44,-55,-50,41,0,-210,-106,639,1589,1934,1446,692,275,164,41,-85,-168,-230,-232,-214,-230,-257,-263,-253,-258,-243,-175,-102,-110,-188,-237,-199,-146,-146,-181,-189,-163,-156,-205,-251,-224,-96,-14,-225,-502,-208,738,1476,1139,-20,-950,-1076,-762,-520,-383,-264,-213,-217,-217,-158,-92,-83,-113,-122,-103,-72,-35,9,2,-59,-139,-182,-164,-106,-47,-10,-4,-29,-58,-50,-11,-7,-65,-124,-129,-109,-130,-207,-292,-332,-316,-273,-212,-147,-80,-28,-30,-79,-121,-125,-116,-109,-84,-31,14,5,-44,-83,-89,-93,-117,-138,-122,-72,-33,-40,-64,-80,-103,-115,-96,-93,-119,-140,-126,-70,-16,-12,-24,-27,-69,-130,-119,-24,68,69,-11,-71,-57,-42,-70,-109,-113,-100,-96,-103,-121,-165,-201,-166,-54,60,82,29,-20,-33,-43,-65,-58,-38,-26,-38,-57,-67,-88,-94,-66,-67,-137,-243,-274,-173,-27,78,107,-88,-402,-273,572,1376,1188,88,-911,-1115,-785,-484,-341,-270,-266,-278,-245,-182,-105,-17,57,89,63,3,-68,-114,-80,-8,26,17,-1,-25,-63,-76,-21,51,69,13,-30,7,73,78,-5,-103,-163,-188,-180,-152,-139,-154,-145,-45,27,-31,-116,-87,12,65,57,40,63,78,28,-34,-83,-109,-71,-8,21,29,36,32,7,-34,-85,-126,-149,-174,-136,-62,-24,-35,-34,31,86,41,-70,-130,-89,-17,17,13,4,28,81,106,79,14,-36,-86,-187,-279,-268,-159,-69,-54,-68,-49,12,67,49,-28,-93,-71,26,82,21,-61,-89,-79,-64,-37,-18,-53,-130,-183,-151,-92,-97,-143,-117,-28,-151,-453,-280,657,1556,1383,206,-881,-1129,-837,-600,-463,-271,-102,-39,-68,-132,-148,-97,-34,-29,-81,-121,-92,-49,-52,-109,-138,-111,-69,-57,-77,-69,-15,21,8,-12,-11,-21,-38,-46,-44,-77,-142,-186,-176,-166,-168,-166,-142,-113,-103,-100,-121,-152,-110,31,124,55,-100,-199,-191,-117,-63,-46,-36,-44,-63,-82,-88,-91,-75,-45,-8,36,90,99,39,-49,-85,-64,-37,-60,-93,-77,-42,-46,-58,-43,-23,-28,-53,-72,-81,-75,-38,4,15,-8,-46,-104,-174,-194,-116,1,63,41,-8,-41,-57,-70,-81,-91,-106,-113,-94,-75,-64,-49,-8,53,-33,-299,-302,353,1211,1340,505,-527,-951,-768,-503,-373,-244,-109,-51,-59,-81,-72,-20,36,37,7,-18,0
person21,-58,-87,-104,-100,-60,-30,-85,-224,-167,367,1017,1014,166,-789,-1048,-632,-178,-62,-102,-86,-37,-3,-12,-59,-48,29,94,55,-62,-139,-86,38,119,118,72,16,-5,-10,-14,-16,-21,-34,-46,-55,-66,-84,-121,-154,-174,-188,-209,-227,-215,-182,-152,-132,-96,-41,-2,-2,-24,-43,-54,-64,-66,-51,-44,-53,-64,-60,-48,-51,-69,-74,-70,-68,-76,-97,-120,-121,-97,-88,-116,-154,-164,-139,-125,-116,-93,-63,-48,-41,-20,8,6,-49,-129,-170,-157,-132,-117,-109,-77,-28,-4,-20,-62,-89,-87,-64,-49,-63,-79,-83,-76,-53,-38,-84,-197,-117,412,1001,925,71,-799,-958,-530,-143,-84,-117,-79,-49,-57,-63,-47,-18,-12,-32,-44,-18,5,3,-7,2,2,-13,-33,-32,-24,-39,-75,-90,-58,-1,26,19,-13,-50,-80,-120,-162,-183,-187,-178,-137,-84,-58,-80,-108,-108,-84,-79,-97,-93,-59,-35,-49,-47,31,160,226,167,57,-8,-15,-24,-55,-76,-77,-63,-46,-39,-53,-74,-92,-98,-89,-71,-57,-64,-77,-73,-50,-45,-69,-83,-99,-157,-265,-381,-399,-268,-58,94,122,49,-46,-106,-129,-129,-96,-50,-1,-18,-165,-386,-450,-15,793,1223,736,-276,-916,-815,-381,-135,-127,-134,-128,-126,-82,-17,26,39,43,36,7,-36,-67,-65,-43,-27,6,45,30,-51,-108,-60,45,93,56,-1,-4,-2,-47,-124,-215,-280,-269,-183,-85,-60,-109,-156,-147,-100,-54,-28,-27,-43,-65,-103,-163,-225,-221,-119,20,102,108,65,25,50,-8,-336,-823,-1235,-1332,-904,-21,904,1383,1220,661,166,-61,-118,-65,5,-15,-78,-122,-122,-73,-30,-12,-5,-12,-15,10,8,-102,-244,-239,-58,134,176,105,5,-87,35,533,987,766,-94,-848,-937,-560,-244,-165,-176,-233,-356,-446,-427,-311,-165,-67,-57,-72,-45,16,42,8,-44,-59,-33,-9,7,27,29,0,-41,-63,-56,-46,-51,-67,-63,-46,-51,-83,-127,-134,-101,-56,-29,-35,-56,-66,-53,-27,-15,-28,-45,-33,-2,9,-4,-21,-25,-21,-22,-34,-55,-78,-84,-72,-38,-7,10,3,-25,-55,-57,-31,4,13,-16,-71,-124,-145,-147,-126,-101,-111,-147,-108,70,288,371,263,87,-25,-65,-62,-51,-92,-204,-151,336,932,910,98,-786,-978,-551,-139,-86,-168,-131,-6,101,119,34,-71,-132,-146,-137,-123,-114,-120,-116,-95,-64,-44,-54,-75,-72,-47,-15,-19,-36,-48,-60,-81,-97,-123,-161,-208,-230,-219,-193,-181,-177,-158,-132,-106,-87,-74,-70,-63,-39,-24,-25,-17,30,104,138,93,13,-52,-83,-90,-90,-86,-102,-123,-112,-84,-76,-128,-207,-193,-111,-81,-137,-161,-58,75,104,24,-46,-50,-31,-26,-64,-143,-168,-172,-285,-498,-602,-462,-208,-65,-103,-138,185,856,1276,878,-104,-811,-744,-280,-33,-80,-150,-133,-100,-84,-104,-137,-129,-76,-24,4,10,9,0,-16,-29,-25,-19,-14,-18,-15,23,114,241,321,283,159,38,-29,-63,-107,-157,-191,-202,-199,-186,-163,-143,-129,-116,-100,-80,-70,-67,-65,-64,-65,-44,-10,-19,-107,-212,-253,-212,-145,-112,-105,-98,-86,-72,-76,-100,-118,-97,-51,-26,-30,-46,-50,-42,-51,-77,-106,-117,-105,-79,-63,-57,-47,-39,-55,-78,-89,-85,-64,-42,-33,-66,-132,19,542,1004,760,-148,-926,-955,-479,-127,-76,-67,18,81,94,80,42,-7,-41,-43,-23,-9,-11,-30,-32,-13,9,29,39,28,12,2,17,45,60,55,66,85,86,46,-28,-113,-171,-186,-179,-159,-134,-93,-55,-41,-22,24,68,63,16,-25,-24,-16,-34,-72,-109,-126,-126,-116,-111,-106,-111,-115,-117,-126,-140,-172,-216,-249,-219,-150,-86,-53,-42,-44,-55,-74,-75,-77,-99,-129,-124,-81,-42,-50,-82,-107,-109,-102,-116,-127,-83,12,60,-24,-38,364,962,1022,247,-700,-999,-633,-207,-101,-144,-130,-113,-124,-120,-111,-103,-99,-112,-126,-112,-67,-29,-28,-47,-42,0
person22,-112,-96,-85,-59,-76,-124,-131,-95,-49,-42,-51,-35,1,6,-4,-10,-12,-16,6,46,76,69,34,8,-2,-22,-44,-40,-12,18,23,3,-26,-41,-34,-10,8,-9,-40,-56,-45,-22,-1,9,7,-7,-16,-19,-23,-39,-50,-41,-32,-31,-19,-3,11,30,44,33,-20,-86,-110,-87,-31,-10,-125,-116,442,1204,1109,-184,-1574,-1759,-790,149,366,196,110,94,76,50,24,8,6,1,2,-1,-2,1,5,13,25,29,31,35,49,60,71,85,99,110,122,120,110,84,50,18,-14,-54,-108,-185,-262,-323,-347,-341,-318,-280,-240,-200,-163,-130,-101,-81,-69,-69,-72,-71,-69,-68,-69,-72,-75,-79,-80,-80,-79,-78,-73,-65,-63,-66,-63,-56,-48,-48,-51,-50,-43,-42,-46,-49,-45,-40,-41,-48,-49,-45,-43,-48,-51,-48,-37,-36,-46,-51,-56,-54,-49,-45,-41,-43,-48,-49,-48,-45,-48,-49,-48,-41,-44,-48,-38,-17,-3,9,25,12,-38,-106,-141,-118,-64,-35,-131,-149,341,1105,1141,-6,-1407,-1748,-920,21,307,166,59,30,16,11,8,-4,-22,-30,-21,-14,-15,-18,-9,6,17,23,30,35,49,63,75,83,87,97,103,96,82,67,47,16,-22,-73,-135,-209,-277,-327,-345,-339,-316,-278,-240,-202,-162,-124,-96,-89,-86,-82,-75,-76,-84,-91,-93,-96,-93,-88,-79,-76,-77,-75,-67,-58,-56,-56,-62,-62,-59,-56,-55,-57,-56,-58,-56,-52,-52,-53,-52,-46,-39,-37,-41,-50,-54,-53,-43,-39,-46,-53,-55,-50,-45,-47,-47,-50,-52,-51,-47,-44,-47,-53,-53,-50,-48,-55,-60,-59,-61,-61,-41,-17,2,12,22,7,-44,-112,-138,-117,-64,-28,-119,-165,291,1089,1216,94,-1398,-1848,-1021,-2,333,185,74,57,43,24,7,-4,-9,-16,-18,-23,-26,-17,-11,-2,4,14,28,41,49,57,70,88,96,98,96,95,90,75,59,36,5,-47,-116,-192,-260,-312,-347,-361,-348,-312,-263,-219,-189,-158,-128,-97,-81,-77,-75,-72,-74,-79,-86,-81,-86,-93,-94,-90,-79,-76,-77,-75,-69,-64,-64,-55,-46,-46,-57,-63,-58,-51,-49,-47,-49,-51,-53,-51,-48,-50,-52,-58,-61,-61,-53,-44,-38,-47,-50,-48,-40,-45,-56,-58,-51,-46,-44,-44,-38,-42,-51,-56,-56,-53,-49,-33,-19,-12,5,33,28,-31,-112,-150,-130,-75,-45,-138,-149,369,1144,1156,-30,-1448,-1768,-910,34,306,164,62,40,26,12,-1,-4,-9,-15,-18,-20,-18,-12,-8,-2,7,17,29,34,38,44,61,80,94,104,110,103,85,64,49,25,-12,-64,-132,-212,-283,-332,-352,-348,-326,-282,-231,-186,-160,-140,-112,-89,-77,-75,-74,-73,-75,-79,-85,-83,-85,-89,-90,-88,-90,-83,-76,-63,-57,-55,-58,-61,-57,-49,-43,-47,-58,-61,-57,-49,-45,-46,-53,-59,-56,-47,-41,-45,-52,-52,-47,-47,-50,-46,-44,-48,-47,-43,-37,-44,-50,-49,-43,-38,-40,-49,-58,-63,-56,-47,-50,-60,-58,-37,-21,-5,20,31,4,-74,-137,-145,-105,-45,-67,-188,-4,741,1335,773,-743,-1817,-1517,-424,268,276,118,71,57,40,23,10,1,-9,-15,-13,-9,-7,-4,-1,0,1,13,30,46,53,57,65,78,94,101,111,107,87,60,37,11,-31,-90,-154,-223,-286,-340,-362,-353,-316,-271,-230,-189,-157,-125,-102,-81,-69,-70,-75,-84,-87,-85,-83,-81,-81,-81,-82,-78,-73,-72,-71,-63,-54,-50,-52,-57,-56,-50,-46,-50,-55,-50,-45,-42,-46,-50,-50,-52,-53,-50,-49,-48,-43,-40,-41,-40,-42,-45,-53,-56,-50,-40,-40,-44,-48,-48,-51,-50,-51,-52,-63,-69,-44,-19,-9,1,18,19,-27,-96,-133,-112,-56,-32,-141,-140,408,1192,1171,-61,-1474,-1752,-872,46,280,129,43,32,18,3,-8,-8,-9,-16,-19,-19,-15,-15,-6,8,23,26,26,32,48,65,83,93,104,109,117,113,0
person23,999,424,-778,-1475,-1076,-195,293,283,200,181,128,65,25,4,-5,-29,-66,-72,-40,-7,0,-2,-3,6,7,20,42,48,41,31,19,3,-28,-69,-95,-98,-90,-91,-106,-140,-199,-251,-269,-236,-188,-155,-148,-144,-132,-124,-119,-103,-82,-64,-51,-40,-36,-40,-48,-55,-58,-65,-69,-55,-31,-23,-47,-68,-62,-52,-53,-60,-62,-47,-37,-54,-80,-82,-50,-20,-23,-62,-99,-96,-69,-47,-28,-21,-30,-53,-80,-76,-33,14,27,2,-51,-103,-124,-109,-78,-68,-60,-29,5,-5,-39,-55,-49,-53,-75,-98,-121,-137,-101,-41,-99,-123,261,807,707,-259,-1234,-1288,-548,125,302,230,152,67,14,6,-10,-38,-31,14,36,13,-21,-34,-47,-59,-49,-21,-6,-3,2,17,28,33,37,35,21,0,-26,-68,-124,-164,-182,-190,-199,-207,-208,-200,-184,-156,-138,-123,-107,-93,-83,-79,-68,-47,-29,-35,-59,-69,-61,-51,-46,-50,-59,-62,-68,-71,-68,-60,-49,-43,-36,-33,-39,-48,-52,-49,-46,-50,-58,-56,-54,-53,-66,-89,-97,-83,-54,-42,-43,-40,-36,-49,-73,-90,-86,-70,-64,-68,-64,-71,-92,-102,-80,-43,-12,-29,-62,-73,-65,-67,-73,-63,-53,-57,-51,-48,-115,-95,328,871,709,-328,-1333,-1371,-588,133,347,299,247,147,40,13,12,-10,-27,-23,-10,-6,-3,5,7,-3,-17,-4,23,43,53,60,74,79,73,56,18,-26,-64,-94,-128,-169,-214,-249,-265,-261,-253,-248,-236,-223,-203,-168,-125,-96,-89,-88,-73,-59,-59,-42,-3,0,-55,-98,-82,-70,-187,-388,-476,-356,-148,10,91,95,29,-33,-23,53,138,191,210,214,146,-8,-94,-17,33,-301,-984,-1284,-646,488,1123,926,411,89,20,-3,-7,55,84,62,32,12,-9,-35,-61,-68,-62,-70,-93,-101,-97,-71,-42,-87,-208,-89,495,980,545,-642,-1481,-1225,-358,201,240,157,153,113,36,-2,-16,-25,-47,-71,-82,-93,-101,-77,-25,9,4,-1,28,61,66,57,62,79,87,65,16,-50,-105,-146,-184,-232,-295,-343,-366,-360,-323,-261,-202,-163,-146,-129,-108,-97,-110,-115,-87,-45,-24,-47,-77,-89,-94,-103,-114,-123,-111,-82,-39,-4,12,-3,-31,-49,-52,-43,-39,-49,-56,-53,-52,-52,-48,-35,-33,-43,-53,-51,-39,-35,-29,-33,-51,-63,-68,-68,-65,-59,-61,-69,-64,-42,-13,-11,-43,-69,-72,-67,-65,-55,-54,-51,-13,-10,-115,-191,144,837,1024,162,-1070,-1512,-907,-67,306,276,208,160,71,23,22,18,14,-7,-47,-92,-99,-60,-7,21,27,23,30,41,53,66,71,59,36,13,-12,-32,-57,-93,-150,-220,-279,-307,-309,-301,-281,-256,-232,-207,-173,-128,-83,-69,-63,-40,-3,4,-36,-69,-67,-57,-56,-62,-69,-64,-52,-39,-50,-78,-102,-95,-81,-72,-54,-31,-40,-74,-95,-87,-75,-81,-87,-74,-54,-38,-35,-57,-91,-98,-72,-36,-33,-60,-82,-71,-53,-51,-55,-55,-43,-33,-38,-53,-66,-70,-59,-35,-2,6,-16,-49,-69,-69,-73,-86,-88,-94,-88,-64,-34,-94,-212,-25,648,1117,580,-685,-1503,-1208,-345,209,254,152,105,43,7,6,-1,-13,-33,-54,-45,-3,32,24,-5,-23,-8,9,24,40,65,69,45,22,23,35,32,9,-19,-47,-100,-186,-284,-335,-332,-311,-297,-267,-224,-180,-148,-125,-89,-49,-33,-45,-64,-72,-66,-63,-67,-74,-58,-38,-39,-61,-82,-82,-61,-36,-24,-35,-36,-24,-15,-27,-46,-46,-35,-42,-74,-114,-118,-80,-20,23,17,-22,-53,-58,-45,-32,-29,-38,-53,-59,-60,-57,-54,-48,-52,-69,-99,-133,-147,-138,-111,-77,-61,-51,-43,-28,-8,18,21,-15,-61,-92,-105,-105,-85,-58,-51,-42,-2,13,-111,-200,192,893,958,-21,-1194,-1427,-675,123,344,211,103,43,-12,-19,-18,-17,-4,0,-18,-30,-26,-17,-19,-19,-9,4,3,-3,2,45,104,130,104,54,0
person24,-24,-26,-24,-24,-33,-44,-40,-36,-55,-90,-117,-121,-114,-115,-119,-120,-116,-105,-89,-71,-69,-82,-93,-87,-65,-49,-53,-64,-70,-66,-64,-64,-68,-75,-86,-82,-53,-12,6,-8,-49,-84,-94,-78,-63,-66,-88,-104,-96,-82,-73,-56,-9,20,-63,-188,21,620,948,446,-503,-980,-689,-186,-18,-97,-111,-57,-46,-46,-40,-32,-24,-22,-28,-33,-31,-30,-33,-30,-24,-24,-30,-44,-54,-63,-73,-87,-95,-100,-101,-105,-114,-117,-112,-114,-119,-136,-135,-111,-79,-58,-52,-51,-49,-57,-69,-73,-73,-68,-61,-66,-69,-52,-13,4,-12,-48,-75,-80,-78,-77,-74,-66,-58,-57,-62,-68,-66,-41,-29,-133,-223,74,694,923,307,-615,-962,-577,-101,8,-71,-73,-38,-43,-53,-50,-42,-36,-37,-32,-17,-4,-11,-29,-38,-35,-29,-26,-39,-59,-59,-36,-24,-55,-105,-132,-128,-121,-130,-136,-127,-113,-99,-86,-75,-72,-65,-61,-58,-58,-62,-61,-54,-59,-69,-85,-81,-61,-37,-21,-14,-31,-69,-105,-108,-95,-85,-82,-81,-71,-60,-54,-53,-23,8,-68,-213,-66,501,908,539,-364,-916,-711,-213,8,-46,-72,-42,-43,-62,-75,-68,-44,-26,-27,-34,-37,-39,-35,-27,-25,-28,-39,-44,-47,-56,-74,-79,-75,-71,-82,-107,-136,-154,-154,-145,-130,-115,-102,-90,-81,-69,-56,-53,-62,-78,-77,-68,-73,-88,-98,-92,-76,-50,-22,-12,-34,-76,-97,-87,-70,-64,-70,-75,-78,-75,-70,-68,-45,-14,-84,-214,-34,543,900,465,-442,-928,-649,-144,34,-44,-78,-56,-49,-38,-28,-26,-37,-44,-41,-26,-26,-32,-31,-17,-11,-17,-29,-26,-19,-29,-58,-85,-98,-100,-115,-141,-167,-187,-205,-199,-169,-127,-90,-63,-38,-35,-58,-78,-67,-43,-45,-73,-84,-75,-67,-73,-74,-49,-24,-30,-50,-62,-66,-74,-82,-77,-53,-26,-27,-57,-84,-73,-15,-5,-156,-177,309,911,838,-11,-816,-859,-372,-38,-41,-78,-47,-39,-36,-16,-11,-24,-36,-30,-11,-7,-9,-8,4,6,2,-8,-15,-22,-32,-49,-70,-91,-99,-94,-106,-148,-199,-218,-191,-148,-122,-109,-90,-64,-54,-52,-38,-24,-31,-52,-61,-61,-71,-92,-92,-56,-6,19,-2,-53,-89,-88,-66,-61,-58,-60,-63,-69,-70,-57,-42,-8,-4,-173,-293,124,884,1090,329,-685,-987,-555,-111,-46,-100,-75,-69,-73,-50,-28,-12,-3,-10,-24,-24,-11,2,4,0,-8,-11,-15,-14,-14,-36,-74,-101,-110,-110,-118,-138,-174,-201,-197,-166,-130,-99,-81,-73,-77,-71,-57,-46,-47,-61,-69,-74,-82,-92,-86,-61,-30,-12,-28,-74,-118,-133,-124,-91,-60,-49,-57,-67,-71,-57,-25,17,-41,-273,-255,431,1236,1154,95,-900,-982,-451,-111,-129,-149,-91,-75,-67,-37,-24,-23,-27,-29,-25,-25,-20,-7,-4,-8,-8,-4,-6,-18,-40,-71,-98,-111,-110,-114,-151,-192,-201,-186,-174,-162,-144,-111,-82,-54,-41,-38,-50,-63,-59,-47,-45,-61,-81,-82,-71,-41,-12,-1,-10,-34,-67,-95,-103,-91,-79,-72,-60,-27,-9,-15,-34,2,-25,-293,-353,384,1401,1485,312,-977,-1247,-687,-230,-197,-196,-99,-62,-66,-66,-57,-39,-35,-34,-29,-19,-15,-19,-22,-7,1,-4,-7,-5,-18,-53,-93,-107,-102,-104,-142,-200,-231,-216,-183,-154,-125,-97,-74,-59,-59,-69,-80,-90,-84,-68,-66,-60,-45,-58,-101,-113,-69,-9,26,33,29,17,-27,-78,-94,-77,-56,-58,-82,-77,-53,-32,-46,-61,-4,-64,-344,-240,686,1603,1330,-49,-1181,-1181,-566,-243,-267,-216,-104,-73,-57,-50,-52,-44,-33,-29,-33,-36,-20,1,1,-10,-10,1,-5,-26,-50,-63,-69,-81,-101,-137,-177,-197,-192,-179,-169,-149,-115,-87,-78,-72,-54,-27,-25,-37,-39,-31,-32,-14,-4,-2,-11,-23,-26,-17,-11,-33,-78,-115,-128,-106,-65,-31,-35,-72,-121,-143,-142,-136,-133,-113,-95,-86,-78,-74,-66,-60,-57,-51,-51,-52,-55,-49,0
person25,-62,-79,-90,-90,-99,-132,-175,-198,-176,-130,-83,-73,-93,-114,-110,-94,-81,-77,-67,-53,-63,-108,-171,-223,-236,-210,-165,-129,-111,-96,-78,-55,-44,-42,-41,-18,18,33,10,-10,12,55,76,80,74,51,-4,-69,-114,-130,-136,-131,-106,-71,-49,-44,-50,-55,-59,-41,86,232,148,-297,-856,-1063,-684,-7,479,578,417,217,117,71,20,-19,-41,-53,-52,-48,-55,-50,-43,-47,-68,-82,-74,-49,-35,-28,-16,-10,-23,-28,-21,-17,-32,-62,-88,-98,-100,-113,-132,-152,-164,-154,-116,-97,-132,-182,-169,-82,10,30,3,-19,-15,-17,-30,-47,-60,-65,-59,-55,-58,-64,-72,-82,-90,-87,-81,-79,-82,-84,-76,-75,-88,-107,-124,-125,-92,-41,-13,-40,-103,-159,-173,-151,-118,-99,-93,-95,-87,-61,-36,-54,-53,71,222,125,-350,-904,-1045,-587,106,543,565,374,190,103,61,15,-15,-18,-16,-20,-28,-35,-33,-16,3,0,-20,-36,-25,4,25,34,49,58,52,48,58,63,25,-55,-125,-140,-138,-162,-170,-146,-135,-181,-258,-296,-242,-158,-98,-60,-15,31,59,57,22,-24,-63,-90,-79,-54,-43,-57,-81,-91,-99,-118,-120,-102,-85,-90,-95,-85,-57,-40,-32,-27,-6,21,49,46,-4,-87,-148,-172,-161,-141,-121,-100,-76,-65,-55,-38,-34,-19,119,333,350,-14,-584,-894,-658,-70,457,679,637,481,388,376,333,234,127,39,-43,-167,-280,-307,-255,-204,-185,-167,-151,-146,-141,-135,-129,-156,-225,-279,-258,-175,-115,-76,5,133,230,230,123,-56,-234,-324,-262,-118,-25,-54,-120,-159,-241,-403,-539,-529,-402,-316,-321,-320,-237,-130,-75,-68,-59,-48,-41,-36,-38,-44,-45,-41,-30,-23,-22,-25,-29,-18,9,40,62,65,44,-10,-76,-121,-139,-138,-129,-112,-87,-54,-40,-42,-45,-59,-35,98,258,179,-267,-825,-1025,-697,-87,455,722,702,467,199,56,24,15,-32,-88,-129,-159,-169,-152,-119,-78,-57,-43,-27,-18,-6,37,47,-7,-6,83,166,154,0,-139,83,671,1042,644,-267,-910,-847,-350,10,38,-181,-483,-631,-504,-268,-162,-149,-115,-82,-61,-40,-40,-43,-46,-44,-42,-45,-58,-69,-70,-64,-61,-53,-53,-62,-58,-40,-25,-23,-13,17,46,62,61,23,-59,-85,67,333,413,130,-337,-620,-539,-268,-82,-108,-190,-85,150,146,-290,-882,-1097,-717,-37,475,601,450,242,120,86,57,31,29,10,-25,41,275,518,490,185,-98,-154,-125,-218,-373,-372,-123,213,392,405,345,202,-110,-516,-773,-726,-503,-332,-278,-236,-189,-156,-135,-111,-87,-61,-51,-48,-40,-29,-23,-29,-37,-45,-42,-39,-40,-41,-43,-51,-65,-74,-76,-71,-62,-63,-63,-61,-60,-56,-54,-52,-33,0,32,45,39,4,-61,-117,-140,-138,-128,-119,-101,-72,-60,-56,-49,-63,-60,81,274,220,-231,-822,-1067,-736,-98,400,540,410,212,89,44,11,-14,-28,-41,-46,-46,-43,-42,-50,-53,-46,-30,-16,-11,-14,-6,8,16,3,-13,-21,-20,-25,-43,-70,-91,-107,-132,-158,-176,-181,-161,-140,-123,-103,-74,-43,-20,-24,-27,-21,-9,-21,-42,-61,-69,-71,-75,-82,-81,-79,-81,-88,-93,-82,-71,-70,-62,-55,-55,-51,-29,11,39,36,6,-47,-101,-147,-169,-160,-131,-100,-77,-66,-60,-48,-53,-64,52,268,307,-60,-671,-1044,-852,-245,308,519,433,236,107,60,29,-3,-26,-42,-48,-46,-45,-47,-50,-50,-43,-34,-21,1,17,17,9,14,38,55,32,3,5,47,75,34,-43,-94,-102,-101,-131,-168,-182,-159,-133,-113,-94,-66,-58,-81,-111,-106,-56,-11,-20,-64,-92,-76,-44,-16,-6,-24,-56,-89,-107,-87,-66,-73,-83,-62,-17,-2,-19,-44,-41,-19,-3,6,-27,-113,-176,-166,-159,-236,-337,-355,-271,-173,-152,-146,-1,237,274,-101,-694,-1015,-756,-116,439,638,536,319,120,-4,-84,-123,-130,-124,-105,-79,-63,0
person26,-7,-1,-12,-31,-49,-37,-8,-1,-18,-27,-16,-5,-14,-27,-28,-42,-98,-152,-171,-164,-157,-152,-143,-118,-83,-57,-60,-69,-54,-36,-41,-62,-82,-95,-111,-122,-103,-77,-80,-110,-125,-106,-86,-78,-78,-77,-69,-66,-62,-57,-56,-55,-54,-54,-55,-36,-19,-9,19,76,114,74,-32,-110,-131,-144,-170,-173,-148,-115,-95,-82,-68,-56,-72,-87,-7,152,297,323,35,-548,-995,-867,-244,329,445,230,64,51,50,25,13,5,8,2,-12,-8,15,33,32,35,57,78,71,44,18,7,-3,-3,-2,-3,-8,-32,-79,-141,-195,-228,-228,-220,-212,-184,-143,-114,-92,-73,-45,-29,-43,-78,-92,-76,-62,-61,-61,-57,-61,-81,-100,-100,-81,-63,-52,-56,-74,-89,-72,-40,-30,-44,-47,-54,-55,-38,-11,12,54,112,136,65,-67,-163,-163,-142,-158,-176,-162,-116,-77,-64,-70,-58,-51,-69,-13,191,416,399,-64,-803,-1249,-992,-229,455,649,438,193,110,105,87,58,15,-4,7,12,14,31,36,31,21,22,17,11,-8,-18,-14,-5,6,23,33,27,4,-31,-67,-103,-146,-184,-190,-166,-139,-120,-108,-101,-95,-101,-102,-97,-96,-111,-130,-145,-151,-149,-144,-142,-141,-133,-122,-113,-118,-123,-125,-120,-111,-103,-100,-93,-85,-72,-65,-64,-59,-46,-20,23,81,119,83,-30,-145,-201,-197,-186,-186,-187,-184,-168,-141,-111,-81,-64,-80,-96,21,285,485,324,-317,-1104,-1400,-927,-58,557,630,385,178,103,57,11,-10,-27,-29,-22,-10,-13,-23,-19,-11,-11,6,57,126,163,144,105,91,105,127,147,162,149,108,46,4,2,31,71,113,103,53,49,63,-15,-130,-87,185,514,669,653,621,613,563,447,272,130,152,216,2,-568,-1130,-1287,-995,-539,-204,-120,-294,-573,-690,-576,-412,-348,-322,-251,-179,-204,-309,-399,-405,-367,-337,-324,-309,-288,-261,-230,-203,-174,-149,-162,-177,-11,366,645,420,-407,-1341,-1654,-1103,-162,497,602,367,160,91,54,13,-12,-28,-39,-40,-40,-36,-31,-23,-6,-1,-9,-28,-34,-33,-31,-37,-41,-34,-23,-17,-10,-7,-15,-39,-87,-136,-165,-171,-155,-133,-112,-98,-93,-85,-75,-59,-55,-63,-71,-75,-75,-83,-90,-89,-86,-89,-93,-88,-76,-73,-77,-80,-72,-61,-55,-58,-61,-57,-48,-41,-40,-48,-52,-48,-37,-31,-23,-15,5,53,115,141,80,-35,-134,-161,-146,-136,-145,-151,-141,-115,-91,-64,-45,-46,-69,-42,107,333,499,363,-209,-889,-1091,-620,79,426,331,122,57,67,50,33,18,-6,-17,-10,4,16,20,26,33,40,47,50,47,35,16,-1,-7,3,6,0,-15,-42,-84,-145,-199,-233,-238,-225,-196,-157,-125,-107,-95,-75,-59,-55,-61,-70,-70,-64,-65,-74,-83,-87,-85,-90,-92,-90,-84,-76,-77,-73,-69,-61,-61,-63,-64,-60,-59,-59,-65,-52,-36,-18,24,91,134,98,-12,-119,-165,-165,-159,-160,-155,-147,-128,-103,-82,-59,-47,-64,-74,25,255,497,483,-20,-784,-1161,-806,-71,404,384,166,67,63,32,2,1,-3,-7,-11,-9,3,16,30,35,36,37,35,30,23,12,0,-14,-22,-19,-12,-12,-37,-84,-143,-201,-240,-251,-228,-191,-157,-135,-113,-89,-74,-70,-71,-72,-71,-75,-83,-88,-90,-89,-93,-94,-93,-84,-78,-76,-81,-83,-80,-70,-65,-66,-66,-61,-56,-49,-48,-51,-62,-64,-52,-30,-16,23,86,132,102,-4,-115,-168,-164,-153,-159,-166,-157,-133,-106,-85,-64,-47,-64,-80,22,274,519,461,-108,-878,-1202,-774,-12,450,411,171,59,59,45,24,15,0,-9,-11,-3,4,12,13,19,26,30,29,20,6,-8,-22,-24,-16,-2,7,1,-26,-69,-121,-170,-202,-214,-204,-183,-159,-131,-110,-91,-77,-71,-72,-76,-82,-87,-95,-98,-93,-86,-86,-93,-97,-94,-84,-80,-78,-81,-76,-72,-76,-78,-71,-61,-58,-63,-68,0
person27,-45,-47,-59,-62,-55,-40,-33,-43,-58,-70,-76,-75,-76,-63,-49,-48,-57,-52,-35,-20,-23,-38,-47,-44,-50,-60,-60,-43,-13,-3,-16,-43,-64,-62,-52,-44,-56,-64,-64,-61,-57,-43,-27,-20,-25,-37,-49,-63,-72,-78,-69,-62,-47,-39,-123,-236,-124,301,729,735,290,-228,-482,-491,-428,-361,-271,-188,-132,-114,-105,-76,-43,-42,-61,-77,-73,-67,-73,-80,-80,-82,-79,-79,-70,-56,-33,-22,-17,-14,-13,-27,-38,-48,-46,-49,-54,-52,-39,-44,-62,-65,-52,-38,-56,-72,-80,-76,-71,-61,-50,-35,-29,-40,-45,-49,-65,-68,-69,-76,-64,-30,-2,8,-17,-55,-70,-67,-74,-79,-74,-58,-43,-38,-46,-54,-60,-64,-71,-65,-46,-44,-50,-59,-59,-61,-59,-46,-35,-41,-53,-54,-42,-44,-64,-80,-84,-63,-40,-82,-190,-178,131,543,670,364,-110,-396,-427,-356,-290,-244,-210,-173,-141,-123,-108,-72,-49,-55,-66,-60,-48,-59,-88,-98,-87,-78,-66,-54,-51,-55,-45,-33,-28,-25,-31,-37,-47,-56,-57,-67,-90,-100,-83,-50,-28,-34,-71,-85,-72,-57,-61,-73,-65,-53,-46,-51,-57,-51,-39,-36,-43,-55,-57,-48,-47,-59,-67,-66,-57,-62,-69,-65,-48,-34,-35,-37,-45,-60,-72,-79,-75,-71,-60,-34,-40,-81,-101,-71,-22,-13,-43,-74,-73,-54,-55,-84,-101,-90,-68,-57,-92,-163,-162,19,327,527,409,65,-256,-401,-392,-310,-236,-207,-184,-135,-85,-65,-86,-106,-101,-81,-75,-84,-83,-71,-68,-81,-102,-103,-89,-67,-42,-14,-19,-50,-71,-67,-41,-38,-82,-133,-129,-86,-50,-58,-99,-120,-103,-83,-69,-63,-72,-70,-69,-88,-92,-70,-55,-52,-53,-44,-40,-52,-68,-64,-44,-47,-61,-64,-65,-69,-81,-87,-75,-54,-41,-52,-71,-76,-72,-78,-94,-81,-41,-27,-71,-118,-99,-27,11,-25,-75,-76,-45,-43,-67,-91,-80,-60,-50,-50,-50,-49,-86,-159,-135,70,345,465,318,13,-255,-367,-343,-264,-192,-145,-112,-97,-96,-101,-93,-75,-79,-85,-69,-42,-29,-39,-62,-86,-89,-75,-54,-35,-36,-51,-53,-46,-49,-64,-63,-47,-45,-74,-110,-123,-116,-109,-100,-86,-71,-83,-97,-108,-109,-102,-94,-97,-104,-94,-55,-27,-43,-92,-107,-76,-50,-65,-97,-108,-95,-81,-77,-82,-97,-106,-98,-78,-72,-78,-82,-93,-115,-127,-115,-97,-100,-115,-124,-114,-104,-110,-117,-117,-98,-89,-99,-106,-100,-105,-130,-140,-128,-100,-70,-97,-222,-260,-5,440,667,420,-70,-400,-473,-449,-429,-379,-300,-232,-181,-149,-128,-119,-124,-128,-119,-108,-102,-101,-104,-112,-113,-98,-87,-94,-99,-83,-40,-14,-28,-46,-42,-38,-53,-75,-95,-118,-130,-132,-117,-96,-91,-95,-92,-91,-88,-85,-79,-79,-78,-66,-53,-52,-48,-36,-25,-29,-56,-93,-119,-121,-116,-108,-102,-98,-83,-64,-55,-52,-55,-67,-68,-58,-52,-63,-57,-16,9,-54,-185,-280,-280,-229,-183,-125,-52,-14,-45,-102,-127,-89,-19,44,73,88,55,-91,-188,72,684,1097,824,47,-608,-795,-700,-575,-440,-292,-164,-92,-72,-62,-34,6,24,2,-21,-10,24,33,13,-6,-9,-14,-18,-19,-5,30,68,101,116,118,105,75,36,17,16,26,34,35,35,37,35,31,20,2,-11,-18,-7,14,20,7,6,23,45,51,30,13,20,33,26,8,-5,-5,5,6,10,27,39,32,20,5,-4,-11,-15,-12,5,-7,-57,-87,-40,23,9,-65,-96,-50,3,-9,-42,-55,-60,-69,-61,-53,-66,-71,-83,-190,-259,60,770,1261,981,145,-543,-723,-601,-481,-390,-287,-181,-81,-12,-11,-57,-76,-51,-35,-48,-59,-53,-33,-24,-33,-37,-40,-26,-15,3,25,60,89,114,112,115,140,179,178,127,65,27,8,-12,-38,-50,-49,-52,-56,-56,-55,-76,-93,-93,-68,-46,-45,-55,-53,-39,-31,-33,-36,-36,-43,-50,-61,-67,-63,-60,-58,-62,-58,-50,-53,0
person28,-77,-129,-158,-132,-78,-50,-59,-80,-77,-122,-348,-442,112,1158,1720,1120,-113,-916,-913,-600,-440,-387,-300,-214,-162,-135,-106,-71,-63,-95,-113,-70,1,33,25,33,52,33,-34,-86,-67,-4,28,-3,-48,-25,17,0,-51,-80,-104,-155,-227,-239,-153,-41,-10,-60,-116,-146,-138,-111,-87,-64,-56,-72,-60,-11,20,-3,-40,-84,-109,-103,-92,-86,-58,-1,25,-50,-184,-229,-118,58,144,84,-43,-148,-181,-140,-77,-36,10,67,104,85,-1,-92,-114,-60,-12,-14,-86,-185,-187,-35,156,240,178,48,-54,-102,-99,-60,-40,-83,-147,-170,-134,-86,-71,-45,-96,-329,-394,228,1293,1765,1052,-242,-1031,-996,-677,-520,-478,-422,-313,-154,-23,-17,-117,-195,-173,-87,-27,-38,-99,-110,-41,20,-22,-125,-177,-97,20,56,22,4,5,-22,-59,-67,-71,-111,-187,-217,-170,-118,-92,-45,17,42,37,27,9,-26,-97,-159,-164,-119,-58,0,15,-41,-106,-107,-45,13,1,-47,-70,-87,-115,-128,-103,-36,4,-15,-44,-40,-36,-57,-81,-79,-68,-82,-112,-132,-133,-135,-163,-174,-186,-240,-302,-283,-201,-148,-138,-84,27,27,-156,-314,-352,-382,-403,-275,25,255,231,77,6,-7,-47,-14,153,188,-155,-488,-68,1044,1796,1360,124,-879,-1149,-896,-417,51,188,-66,-322,-292,-107,-29,-66,-41,51,80,21,-43,-79,-131,-205,-258,-252,-170,-10,175,308,338,249,61,-122,-184,-97,13,3,-121,-222,-243,-197,-138,-72,-9,6,-47,-118,-136,-86,-8,32,44,52,36,7,-27,-53,-41,-33,-80,-134,-139,-71,25,56,14,0,-68,-317,-534,-441,-113,83,-161,-575,-570,-69,462,659,520,227,13,-27,-8,-52,-175,-292,-284,-170,-70,-32,8,80,170,239,198,15,-183,-265,-241,-225,-342,-509,-428,-82,251,325,188,159,199,-100,-488,-113,1016,1769,1280,-32,-982,-1048,-768,-573,-387,-229,-189,-151,-70,23,89,-7,-209,-320,-290,-187,-149,-214,-216,-73,63,41,-59,-70,-56,-164,-330,-305,20,400,535,390,115,-121,-242,-270,-239,-164,-65,1,-33,-90,-74,-51,-116,-215,-221,-79,78,64,-110,-244,-180,-24,-11,-133,-176,-43,60,-84,-336,-357,-100,57,-225,-719,-847,-299,512,897,729,398,217,199,155,38,-20,-32,-147,-361,-501,-425,-222,-110,-103,14,224,274,117,-15,60,225,241,84,-81,-132,-94,-73,-126,-212,-218,-96,16,29,-6,-128,-327,-228,470,1278,1338,475,-543,-997,-944,-703,-362,-98,-156,-410,-473,-273,-67,-11,-14,30,40,-16,-49,-18,34,58,14,-57,-63,12,87,101,74,38,-5,-51,-48,23,54,-50,-246,-421,-465,-384,-230,-69,33,57,30,7,-28,-102,-150,-138,-101,-22,50,-10,-213,-353,-271,-66,48,13,-27,6,9,-49,-73,-34,40,91,-3,-275,-540,-593,-418,-138,140,358,465,391,184,14,-29,-42,-91,-133,-135,-115,-134,-207,-238,-112,115,209,49,-197,-255,-121,-41,-108,-150,-1,202,219,77,-52,-51,44,7,-281,-427,110,1131,1672,1005,-391,-1325,-1295,-807,-451,-315,-235,-133,-123,-219,-197,24,254,287,128,-13,-11,48,59,44,24,6,-16,-86,-169,-200,-207,-235,-237,-105,107,195,76,-95,-155,-124,-114,-142,-176,-179,-163,-133,-89,-25,49,79,28,-67,-141,-166,-142,-87,-38,-53,-124,-160,-130,-63,-16,28,72,81,30,-48,-105,-133,-141,-157,-165,-123,-25,45,33,-28,-39,6,7,-81,-187,-212,-143,-48,2,11,-11,-63,-134,-171,-105,23,103,96,44,-16,-76,-152,-207,-201,-140,-53,33,72,15,-85,-268,-590,-663,29,1184,1744,1097,-143,-916,-902,-582,-372,-296,-306,-331,-269,-143,-59,-54,-69,-39,13,50,54,54,82,110,73,10,-10,-4,-56,-176,-245,-173,-10,123,124,-1,-156,-219,-164,-93,-87,-138,-169,-136,-61,6,25,10,7,25,0,-74,-143,-123,-26,57,87,75,30,-42,-110,0
person29,35,41,37,0,-49,-70,-53,-33,-43,-67,-79,-75,-54,-36,-51,-89,-109,-96,-74,-50,-15,2,-18,-75,-109,-85,-39,-28,-45,-66,-78,-80,-68,-66,-55,-38,-28,-52,-82,-91,-78,-61,-58,-59,-47,-51,-79,-97,-83,-48,-16,-7,-26,-48,-59,-66,-66,-65,-68,-76,-80,-78,-79,-78,-75,-77,-76,-73,-71,-75,-80,-68,-35,-15,-37,-83,-95,-64,-48,-74,-111,-96,-7,13,-167,-369,-219,374,974,1019,466,-213,-593,-679,-611,-476,-331,-227,-182,-167,-127,-100,-88,-75,-65,-78,-120,-144,-140,-124,-128,-145,-162,-175,-187,-177,-147,-118,-74,-18,35,70,90,103,108,104,111,99,37,-38,-53,17,69,34,-48,-94,-84,-69,-69,-80,-86,-74,-60,-62,-79,-101,-108,-92,-59,-36,-42,-51,-62,-69,-72,-52,-15,-4,-52,-101,-92,-34,3,-14,-58,-95,-122,-112,-72,-46,-67,-107,-114,-87,-71,-73,-81,-84,-79,-72,-69,-72,-70,-49,-22,-12,-22,-36,-36,-32,-26,-30,-31,-34,-44,-52,-40,-6,26,28,3,-24,-34,-36,-50,-81,-114,-144,-131,-90,-160,-361,-393,36,749,1115,779,38,-534,-728,-703,-608,-487,-376,-288,-235,-166,-80,-36,-40,-65,-78,-69,-68,-89,-115,-131,-137,-133,-131,-133,-139,-131,-112,-75,-33,8,53,110,154,165,143,105,70,40,18,0,-28,-53,-65,-63,-69,-85,-95,-85,-65,-56,-69,-75,-56,-24,-21,-40,-56,-64,-85,-112,-117,-95,-75,-91,-113,-97,-66,-55,-68,-84,-94,-89,-86,-97,-100,-91,-88,-96,-96,-60,-9,7,-27,-66,-78,-84,-101,-117,-124,-115,-99,-92,-84,-58,-20,4,4,3,14,27,9,-19,-39,-45,-44,-39,-35,-20,-9,-28,-68,-106,-133,-143,-138,-133,-121,-87,-51,-111,-241,-230,32,360,482,338,108,-84,-233,-343,-351,-280,-213,-166,-122,-90,-74,-71,-70,-56,-33,-24,-40,-69,-73,-48,-39,-60,-82,-81,-71,-68,-68,-61,-42,-17,-1,25,50,55,34,0,-40,-64,-56,-20,10,-6,-49,-78,-91,-91,-87,-78,-68,-62,-55,-44,-37,-39,-47,-57,-65,-69,-60,-52,-58,-71,-77,-78,-73,-70,-70,-72,-67,-61,-55,-46,-45,-53,-53,-40,-25,-19,-29,-42,-40,-22,-9,-7,-15,-23,-29,-38,-50,-57,-55,-58,-67,-83,-97,-109,-114,-98,-75,-71,-85,-92,-79,-73,-69,-50,-20,-7,-44,-91,-109,-100,-106,-118,-120,-81,9,-19,-296,-495,-106,811,1476,1227,288,-563,-884,-838,-679,-521,-381,-281,-213,-169,-142,-122,-100,-84,-89,-106,-108,-103,-101,-110,-132,-158,-184,-201,-193,-159,-132,-126,-102,-40,40,98,126,146,165,160,131,97,73,52,29,11,-10,-31,-55,-67,-71,-75,-75,-75,-76,-87,-93,-84,-66,-50,-43,-43,-41,-39,-46,-54,-53,-58,-66,-65,-46,-27,-26,-42,-55,-62,-61,-56,-56,-63,-69,-75,-80,-84,-63,-35,-28,-49,-75,-78,-70,-60,-63,-60,-50,-57,-80,-100,-103,-78,-51,-48,-68,-74,-71,-79,-91,-86,-68,-47,-57,-73,-90,-99,-102,-89,-95,-115,-128,-91,-35,-99,-318,-402,7,787,1298,1057,276,-435,-738,-744,-637,-488,-335,-229,-197,-184,-143,-110,-103,-103,-79,-38,-29,-63,-103,-133,-141,-157,-174,-195,-205,-201,-178,-139,-63,35,102,129,168,200,194,153,92,60,61,72,67,47,-5,-56,-77,-87,-97,-101,-105,-94,-72,-54,-53,-52,-50,-56,-83,-90,-49,0,9,-16,-41,-33,-30,-49,-68,-68,-61,-56,-56,-60,-68,-74,-73,-65,-60,-64,-55,-40,-46,-53,-64,-79,-103,-110,-94,-58,-37,-38,-66,-94,-115,-104,-82,-79,-86,-79,-64,-65,-71,-64,-45,-32,-23,-14,-7,-28,-63,-84,-85,-83,-88,-81,-38,-74,-272,-396,-84,630,1165,1001,301,-370,-687,-713,-595,-442,-313,-231,-191,-163,-134,-140,-142,-109,-78,-74,-85,-98,-108,-121,-138,-158,-173,-182,-175,-142,-109,-88,-66,-18,40,79,93,110,133,144,132,0
person30,6,-108,-156,-66,79,180,205,167,124,80,16,-65,-164,-282,-381,-410,-338,-222,-131,-69,-35,-71,-176,-236,-186,-98,-82,-141,-205,-239,-263,-275,-260,-233,-209,-168,-121,-82,-73,-74,-56,-40,-45,-52,-49,-36,-29,-33,-51,-60,-60,-51,-45,-48,-55,-56,-53,-61,-68,-75,-73,-69,-73,-65,-40,-10,4,-10,-41,-62,-73,-81,-79,-66,-61,-62,-56,-43,-42,-53,-60,-46,-36,-9,-17,-154,-190,237,878,942,124,-904,-1253,-823,-237,63,144,129,55,6,15,16,-12,-38,-33,-12,-2,-12,-19,-15,-12,-6,12,33,34,12,10,37,61,53,0,-45,-56,-50,-62,-100,-152,-198,-211,-193,-165,-139,-118,-111,-108,-110,-92,-53,-40,-66,-87,-82,-65,-54,-49,-46,-49,-63,-71,-62,-43,-39,-48,-58,-51,-35,-36,-52,-55,-34,-7,18,34,29,-7,-47,-78,-84,-84,-86,-79,-63,-50,-46,-42,-33,-36,-46,-57,-41,11,-40,-214,-125,472,1020,748,-281,-1154,-1172,-583,-69,136,164,101,11,-20,-13,-19,-41,-60,-60,-50,-49,-48,-32,-24,-23,-24,-16,3,31,49,53,46,38,42,37,7,-37,-79,-109,-133,-171,-205,-217,-199,-167,-150,-149,-140,-111,-76,-62,-80,-106,-112,-84,-54,-53,-73,-89,-94,-81,-63,-58,-75,-85,-69,-59,-84,-114,-123,-112,-100,-87,-76,-58,-22,-8,-24,-72,-119,-143,-149,-145,-101,-62,-70,-98,-69,-7,18,2,-19,-33,-21,-4,-110,-237,5,628,957,428,-595,-1183,-937,-341,34,136,129,81,32,-1,-35,-40,-9,10,2,-26,-42,-39,-19,-5,-23,-55,-33,39,86,36,-33,-20,28,8,-47,-55,-40,-31,-63,-209,-309,-45,619,1206,1152,546,45,54,301,373,220,22,-78,-81,-97,-155,-199,-191,-131,-67,-37,-50,-118,-206,-265,-268,-213,-161,-153,-155,-117,-80,-43,17,24,-130,-390,-594,-629,-526,-421,-375,-321,-208,-5,141,-13,-279,-244,92,301,162,-71,-107,-97,-161,59,643,896,305,-717,-1281,-1005,-342,108,225,174,30,-131,-223,-207,-126,-77,-103,-180,-246,-261,-267,-301,-328,-283,-192,-146,-153,-122,-4,89,67,35,90,145,86,-46,-153,-206,-219,-225,-207,-174,-182,-243,-303,-299,-234,-160,-117,-80,-25,29,41,-19,-87,-92,-26,32,24,-18,-31,-9,7,5,-4,-16,-42,-58,-60,-53,-42,-15,43,91,92,59,27,7,-5,-29,-73,-139,-204,-228,-212,-180,-156,-116,-56,-13,-8,-4,30,-27,-195,-83,510,1011,701,-302,-1116,-1093,-502,-3,176,203,159,71,16,13,23,14,-15,-9,32,36,-48,-122,-94,-27,-48,-129,-149,-67,24,49,22,13,43,50,4,-55,-87,-102,-131,-171,-190,-173,-158,-167,-162,-131,-104,-100,-74,-12,49,71,51,8,-8,0,24,23,-9,-52,-67,-62,-47,-22,-37,-93,-84,35,139,127,51,37,125,155,48,-74,-116,-96,-71,-75,-97,-118,-121,-83,-31,-30,-97,-160,-177,-164,-155,-137,-70,-52,-199,-240,198,862,974,203,-851,-1267,-834,-138,266,322,206,61,21,48,16,-58,-109,-102,-79,-103,-136,-98,-24,-31,-89,-99,-54,-24,-34,-39,13,82,68,-30,-106,-92,5,99,164,225,141,-245,-825,-1258,-1378,-1333,-1281,-1188,-929,-592,-356,-232,-155,-62,74,167,182,199,249,287,276,217,168,173,211,269,306,265,176,133,150,144,89,40,100,189,162,27,-68,-55,-6,-57,-202,-332,-381,-357,-286,-192,-95,-32,-69,-189,-264,-186,-98,-83,157,718,1023,464,-644,-1301,-1020,-324,33,-38,-160,-138,-32,35,22,-20,-50,-59,-74,-100,-124,-131,-110,-68,-44,-33,-13,23,74,130,141,63,-42,-85,-50,-16,-42,-111,-168,-181,-157,-134,-111,-92,-75,-63,-53,-57,-76,-101,-105,-72,-12,16,-17,-98,-143,-113,-50,-18,-35,-42,-9,24,11,-41,-83,-77,-37,-1,4,-7,-1,19,46,44,15,-15,-31,-44,-86,-112,-73,-1,28,0
person31,-37,-37,-28,-7,7,11,4,2,16,39,49,43,33,14,-14,-52,-94,-131,-164,-187,-192,-182,-164,-161,-164,-170,-157,-104,-23,32,27,-19,-55,-64,-60,-55,-58,-62,-71,-74,-67,-63,-69,-77,-84,-80,-72,-67,-72,-71,-63,-57,-51,-33,0,59,110,109,22,-109,-205,-229,-199,-167,-139,-116,-100,-98,-110,-100,-59,-30,18,126,224,242,186,10,-272,-505,-503,-224,120,213,9,-254,-342,-219,9,138,102,32,7,7,-6,-22,-31,-36,-44,-48,-47,-36,-32,-33,-27,-5,24,43,37,23,20,17,-2,-33,-82,-128,-154,-157,-159,-176,-193,-184,-149,-119,-108,-85,-61,-58,-68,-68,-53,-48,-56,-66,-69,-66,-69,-75,-71,-66,-67,-77,-83,-85,-85,-80,-80,-74,-68,-62,-56,-36,15,80,99,41,-77,-182,-225,-213,-185,-168,-158,-146,-125,-105,-83,-66,-79,-81,29,184,245,200,68,-179,-458,-582,-419,-81,116,21,-189,-284,-214,-26,140,174,127,76,29,-12,-35,-39,-23,-14,-39,-64,-62,-34,-10,-6,-21,-36,-28,3,34,48,30,-4,-36,-67,-106,-149,-178,-181,-172,-169,-178,-167,-134,-102,-85,-73,-55,-49,-48,-50,-54,-51,-53,-57,-51,-37,-34,-50,-77,-101,-90,-56,-44,-59,-75,-71,-51,-52,-69,-76,-61,-54,-65,-66,-26,54,115,114,56,-49,-146,-201,-204,-186,-169,-174,-167,-143,-132,-114,-57,4,49,150,275,313,276,168,-44,-314,-487,-388,-84,110,-19,-298,-426,-319,-75,109,125,56,9,-28,-70,-74,-43,-20,-35,-60,-60,-46,-40,-21,11,28,14,5,13,35,39,26,20,17,-17,-73,-123,-155,-178,-184,-182,-170,-143,-119,-108,-100,-93,-71,-53,-51,-59,-54,-43,-44,-50,-50,-50,-49,-55,-63,-71,-66,-64,-74,-81,-82,-74,-71,-66,-51,-42,-39,-15,58,131,113,-4,-139,-210,-216,-199,-182,-156,-133,-123,-116,-93,-67,-68,-76,10,169,259,234,128,-84,-359,-543,-452,-142,86,11,-233,-360,-269,-53,130,165,104,44,14,-2,-12,-24,-31,-39,-36,-29,-25,-23,-11,-4,-2,10,31,49,50,40,24,-1,-25,-43,-65,-106,-157,-192,-194,-179,-161,-144,-134,-122,-107,-88,-68,-58,-57,-58,-52,-44,-48,-55,-59,-59,-58,-66,-69,-65,-63,-66,-73,-68,-62,-58,-62,-68,-64,-49,-9,52,108,110,15,-122,-211,-213,-184,-174,-176,-158,-129,-107,-100,-81,-70,-79,-29,120,242,260,185,-8,-303,-532,-495,-195,93,79,-161,-330,-289,-105,90,154,106,50,25,5,-12,-26,-27,-27,-30,-32,-26,-19,-13,-3,12,18,22,24,30,30,24,14,-2,-34,-79,-125,-155,-180,-192,-191,-178,-158,-141,-118,-92,-77,-70,-66,-59,-51,-43,-44,-49,-53,-52,-49,-52,-59,-69,-74,-73,-67,-67,-73,-69,-70,-70,-76,-78,-67,-57,-54,-61,-62,-59,-58,-58,-54,-47,-28,20,89,126,83,-44,-171,-228,-212,-185,-171,-156,-138,-118,-103,-86,-63,-65,-72,-2,144,227,213,124,-74,-354,-533,-429,-86,176,109,-173,-350,-298,-99,88,135,80,31,9,-2,-11,-19,-33,-40,-35,-23,-19,-19,-14,-5,2,7,19,34,38,34,30,24,1,-30,-69,-115,-155,-180,-181,-173,-169,-164,-145,-110,-77,-65,-69,-68,-55,-46,-44,-52,-62,-56,-52,-56,-62,-66,-66,-64,-64,-72,-86,-82,-69,-50,-44,-55,-70,-68,-65,-62,-64,-69,-68,-59,-53,-54,-51,-44,-48,-55,-67,-66,-56,-47,-48,-52,-55,-61,-63,-58,-43,-32,-20,6,52,100,92,7,-118,-203,-209,-181,-160,-155,-143,-121,-105,-99,-80,-59,-69,-49,73,206,237,173,23,-212,-437,-475,-252,75,199,21,-244,-364,-281,-72,83,106,58,23,-3,-23,-38,-43,-37,-29,-30,-34,-35,-31,-20,-5,5,8,9,15,28,40,39,22,-5,-44,-81,-115,-147,-174,-187,-184,-168,-148,-131,-112,-95,-88,-82,-72,-63,-60,0
person32,-17,-44,-52,-49,-48,-53,-55,-59,-59,-63,-60,-57,-54,-51,-49,-45,-51,-60,-56,-42,-22,-20,-55,-97,-92,-30,25,32,-15,-66,-80,-83,-82,-88,-98,-103,-96,-79,-61,-56,-56,-53,-44,-10,25,-2,-170,-300,55,847,1236,610,-542,-1153,-882,-326,-98,-142,-142,-91,-75,-72,-64,-49,-32,-29,-34,-41,-38,-34,-29,-21,-15,-12,-9,-6,0,7,11,22,28,11,-10,-5,11,-8,-85,-177,-241,-258,-256,-243,-217,-178,-142,-109,-87,-70,-66,-66,-67,-65,-60,-60,-58,-60,-57,-49,-49,-54,-57,-56,-54,-61,-68,-68,-61,-54,-53,-55,-59,-62,-63,-67,-77,-80,-75,-71,-65,-49,-41,-56,-79,-90,-67,-43,-32,-35,-50,-74,-107,-124,-123,-104,-77,-53,-41,-37,-38,-33,-31,-42,-38,-9,-5,-126,-275,-25,727,1236,780,-334,-1067,-932,-408,-136,-146,-143,-94,-82,-74,-64,-59,-47,-41,-41,-30,-8,11,3,-23,-41,-36,-16,-3,6,23,37,48,44,35,17,-1,-16,-47,-101,-170,-234,-264,-265,-244,-214,-177,-139,-108,-85,-72,-66,-59,-54,-55,-56,-53,-45,-42,-41,-40,-42,-40,-40,-51,-64,-68,-57,-43,-43,-50,-60,-63,-67,-67,-58,-52,-49,-49,-53,-53,-53,-48,-41,-41,-50,-57,-60,-65,-64,-47,-22,3,0,-24,-54,-75,-86,-79,-65,-51,-51,-56,-65,-66,-60,-49,-49,-60,-52,-18,-38,-186,-211,273,1013,1145,329,-720,-1075,-698,-242,-123,-156,-120,-78,-70,-68,-67,-56,-40,-32,-37,-43,-44,-41,-33,-26,-19,-12,-3,4,8,18,33,41,42,30,10,-10,-27,-65,-121,-186,-243,-264,-250,-216,-182,-151,-123,-95,-75,-68,-72,-74,-62,-34,-16,-23,-43,-54,-50,-54,-60,-60,-51,-48,-53,-60,-58,-51,-48,-51,-59,-68,-75,-73,-57,-38,-33,-48,-55,-51,-46,-50,-63,-71,-61,-43,-35,-42,-49,-48,-53,-62,-68,-69,-66,-61,-62,-62,-66,-72,-67,-66,-72,-46,38,83,-37,-161,155,882,1209,561,-541,-1090,-819,-322,-132,-173,-159,-108,-94,-93,-77,-43,6,17,-4,-34,-50,-61,-71,-74,-59,-45,-28,-16,-7,9,26,32,26,16,10,4,-17,-58,-119,-191,-253,-273,-257,-228,-206,-179,-142,-101,-85,-88,-96,-90,-76,-72,-65,-53,-44,-49,-57,-62,-57,-40,-22,-22,-39,-61,-64,-63,-62,-61,-64,-64,-66,-66,-65,-60,-50,-44,-43,-42,-50,-60,-70,-65,-46,-19,-6,-13,-35,-59,-68,-63,-58,-59,-64,-69,-73,-79,-79,-72,-55,-50,-56,-52,-30,-42,-171,-230,185,937,1191,473,-616,-1092,-768,-265,-94,-129,-111,-73,-69,-62,-51,-33,-21,-32,-54,-59,-48,-31,-31,-31,-27,-14,-6,3,11,22,27,30,29,23,1,-34,-70,-98,-133,-175,-215,-236,-233,-212,-191,-169,-140,-116,-93,-77,-68,-61,-53,-48,-44,-39,-32,-34,-43,-48,-47,-43,-41,-49,-57,-60,-59,-56,-65,-79,-87,-84,-74,-60,-53,-59,-73,-80,-77,-69,-56,-39,-24,-19,-30,-57,-83,-89,-73,-58,-58,-66,-65,-53,-46,-45,-50,-60,-72,-58,-27,-55,-189,-155,376,1040,1012,114,-841,-1037,-574,-147,-80,-130,-99,-62,-46,-40,-44,-47,-41,-36,-40,-45,-47,-41,-30,-11,8,14,8,5,10,18,22,21,11,1,-8,-26,-57,-109,-167,-215,-240,-247,-234,-214,-176,-138,-111,-102,-91,-74,-53,-44,-43,-43,-40,-42,-43,-44,-43,-50,-50,-44,-50,-67,-83,-86,-73,-59,-52,-50,-53,-61,-68,-60,-39,-13,-2,-14,-47,-85,-95,-77,-58,-54,-62,-64,-63,-61,-63,-62,-53,-49,-40,-6,27,-38,-199,-115,481,1101,938,-35,-923,-997,-492,-108,-82,-138,-107,-59,-32,-31,-57,-72,-65,-49,-44,-44,-40,-35,-26,-19,-16,-16,-10,2,14,22,28,29,32,29,13,-22,-76,-131,-186,-237,-276,-280,-257,-224,-192,-159,-125,-100,-89,-77,-62,-44,-32,-30,-33,-37,-37,-37,-35,-45,-58,-63,0
person33,-41,-55,-70,-81,-82,-69,-47,-22,-23,-33,-34,-13,-1,-21,-56,-64,-45,-36,-62,-76,-63,-30,-14,-46,-95,-110,-93,-78,-71,-73,-84,-90,-79,-62,-40,-31,-59,-100,-115,-78,-25,-6,-35,-65,-74,-80,-101,-102,-80,-71,-71,-77,-77,-76,-73,-62,-47,-43,-56,-70,-69,-70,-69,-69,-76,-60,-22,-8,-26,-41,-14,23,15,-40,-88,-121,-147,-103,-19,-74,-274,-284,140,751,968,582,-58,-508,-652,-613,-506,-389,-289,-214,-170,-140,-114,-93,-82,-80,-88,-91,-86,-93,-99,-96,-92,-77,-63,-52,-73,-116,-140,-108,-39,-8,-16,-3,31,58,49,46,74,95,70,16,-28,-42,-44,-37,-31,-35,-65,-88,-90,-76,-64,-68,-78,-72,-41,-12,-8,-29,-54,-62,-43,-19,-2,-5,-25,-38,-39,-48,-60,-53,-26,-17,-40,-88,-103,-65,-16,-13,-46,-78,-86,-84,-90,-104,-108,-104,-103,-109,-113,-107,-99,-105,-106,-81,-46,-31,-53,-79,-99,-108,-101,-75,-54,-48,-58,-68,-71,-82,-94,-84,-79,-92,-76,-29,-28,-97,-159,-147,-104,-117,-179,-214,-204,-132,-64,-148,-323,-240,286,917,1056,557,-112,-504,-617,-599,-469,-271,-100,-36,-60,-81,-69,-56,-54,-52,-36,-40,-64,-90,-103,-96,-102,-124,-133,-127,-115,-102,-78,-83,-107,-85,-19,38,57,73,119,154,135,89,53,24,2,-10,-13,-11,-6,1,2,1,-17,-35,-36,-29,-68,-133,-156,-94,-35,-38,-90,-119,-94,-80,-109,-107,-58,-13,-30,-45,-46,-90,-172,-305,-459,-430,-79,423,683,481,27,-274,-287,-209,-148,-96,-90,-84,-52,-29,-29,-35,-44,-42,-30,-52,-108,-133,-77,14,39,-13,-63,-74,-68,-71,-58,-38,-41,-67,-88,-80,-57,-39,-31,-44,-69,-97,-99,-83,-58,-52,-63,-51,-95,-254,-356,-127,439,901,827,274,-313,-598,-620,-527,-411,-307,-220,-165,-137,-112,-100,-99,-93,-86,-91,-98,-94,-79,-70,-81,-103,-124,-130,-125,-117,-102,-81,-49,-19,-9,-7,20,58,75,70,64,58,39,5,-32,-46,-39,-34,-37,-43,-58,-75,-82,-74,-58,-50,-50,-57,-66,-69,-75,-69,-51,-35,-38,-51,-69,-85,-84,-65,-50,-60,-75,-60,-32,-28,-62,-78,-62,-54,-64,-64,-57,-65,-79,-71,-47,-45,-59,-62,-51,-50,-60,-74,-82,-84,-85,-83,-77,-73,-68,-59,-52,-60,-65,-65,-54,-44,-41,-52,-59,-64,-55,-41,-23,-18,-42,-69,-86,-95,-79,-68,-67,-61,-93,-232,-341,-124,468,1016,996,397,-285,-630,-650,-543,-428,-346,-269,-194,-136,-110,-117,-125,-114,-110,-121,-133,-129,-108,-95,-98,-119,-138,-140,-129,-115,-98,-77,-51,-15,18,27,32,51,83,85,50,18,9,8,8,0,-20,-56,-82,-71,-39,-23,-31,-29,-17,5,25,3,-48,-68,-42,8,14,-58,-114,-78,-30,-37,-77,-113,-89,-9,27,-15,-85,-148,-166,-98,-6,33,13,-55,-142,-177,-126,-18,73,76,3,-25,-4,-43,-131,-148,-88,-41,-54,-90,-95,-80,-82,-117,-139,-126,-75,-1,18,-32,-77,-79,-58,-27,-16,-20,-42,-83,-98,-80,-65,-65,-54,21,48,-121,-372,-278,340,1002,1065,457,-292,-679,-722,-628,-503,-374,-270,-192,-150,-148,-160,-153,-124,-100,-114,-132,-111,-70,-77,-112,-121,-116,-123,-152,-174,-144,-75,-40,-49,-63,-27,46,78,37,-8,16,100,144,87,-5,-49,-40,-35,-60,-71,-51,-34,-47,-82,-112,-108,-79,-28,33,70,43,-16,-27,36,92,68,-11,-57,-30,11,8,-44,-105,-139,-141,-109,-48,6,-16,-86,-124,-111,-123,-160,-146,-81,-47,-98,-159,-152,-106,-76,-63,-36,-15,-16,-37,-64,-75,-68,-64,-61,-66,-71,-67,-41,-17,-27,-54,-77,-78,-59,-34,-13,-14,-41,-77,-93,-86,-77,-72,-80,-70,-42,-124,-325,-389,2,711,1143,876,138,-496,-732,-687,-540,-412,-331,-249,-146,-72,-75,-117,-109,-48,-28,-79,-140,-148,-127,-112,-120,-148,-174,-174,0
person34,111,80,10,-94,-148,-87,0,26,40,107,175,169,113,51,6,4,22,11,-36,-123,-170,-159,-157,-178,-183,-153,-96,-42,-46,-70,-12,55,24,-61,-130,-174,-250,-397,-477,-452,-447,-442,-296,-41,183,291,296,282,269,166,-33,-201,-234,-146,-52,-25,-94,-240,-345,-252,53,375,503,401,198,36,-25,54,284,543,705,707,569,406,291,203,79,-76,-190,-213,-166,-138,-181,-227,-189,-107,-75,-137,-267,-286,46,565,650,6,-908,-1314,-953,-307,65,114,62,14,-20,-52,-100,-136,-136,-158,-216,-241,-202,-122,-34,10,2,-13,-23,-66,-122,-160,-142,-94,-61,-68,-90,-88,-80,-68,-72,-120,-218,-335,-409,-376,-277,-191,-142,-43,137,254,201,39,-99,-148,-143,-120,-119,-157,-196,-184,-171,-219,-256,-192,-86,-29,-26,2,28,-96,-340,-431,-214,125,313,293,212,164,120,49,-20,-56,-76,-116,-138,-135,-119,-111,-107,-123,-162,-161,-92,4,49,39,39,40,-30,-152,-218,-149,6,122,99,-53,-188,-202,-134,-81,-67,-34,7,-9,-140,-243,33,660,1013,560,-420,-1095,-1016,-490,-45,142,147,43,-86,-103,-33,13,9,-11,2,52,105,120,104,75,21,-22,-38,-60,-82,-46,19,29,-47,-141,-142,-26,84,70,-61,-231,-359,-372,-262,-84,54,73,-28,-276,-456,-308,-212,-684,-1426,-1572,-848,-38,140,-23,187,712,926,674,254,-46,-128,-172,-292,-434,-588,-781,-1016,-1209,-1251,-1143,-945,-714,-487,-296,-155,-46,40,91,119,132,132,134,139,145,148,136,116,100,101,123,147,161,149,113,90,89,95,83,64,57,57,46,25,23,37,45,37,53,85,15,-117,62,654,1077,688,-320,-1071,-988,-368,154,328,288,179,112,115,111,71,52,43,30,47,91,121,125,132,145,143,111,94,145,250,303,242,133,104,147,83,-213,-591,-683,-342,9,22,-81,-2,133,-5,-419,-695,-454,227,919,1294,1382,1560,1985,2203,1766,867,100,-208,-198,-164,-243,-341,-293,-121,45,196,409,610,610,415,259,285,364,324,149,-85,-282,-382,-400,-356,-304,-359,-399,-302,-239,-402,-635,-587,-246,18,-9,-129,-133,-108,-149,-193,-221,-295,-439,-558,-565,-540,-599,-728,-824,-827,-796,-765,-673,-568,-514,-284,331,934,839,-3,-861,-1015,-536,-20,197,208,144,76,51,48,9,-70,-130,-129,-94,-53,9,111,165,56,-139,-218,-95,98,168,116,24,-61,-147,-168,-83,-39,-146,-259,-172,54,143,0,-198,-280,-230,-179,-234,-363,-425,-329,-144,-5,3,-73,-126,-128,-77,-18,-22,-91,-157,-183,-184,-178,-192,-241,-268,-211,-132,-90,-54,16,54,-35,-201,-279,-189,-79,-81,-121,-116,-91,-93,-148,-181,-137,-70,-51,-89,-155,-170,-97,16,98,108,37,-47,-83,-86,-71,-51,-67,-114,-180,-242,-241,-161,-87,-60,-65,-58,-92,-241,-206,344,991,921,17,-950,-1183,-717,-174,93,163,140,56,-21,-72,-81,-50,-41,-72,-106,-99,-55,-10,1,-7,-36,-85,-84,-26,38,79,90,58,0,-36,-54,-74,-96,-101,-52,36,66,2,-110,-197,-225,-200,-176,-168,-142,-88,-51,-55,-53,-21,-34,-114,-166,-104,8,28,-70,-159,-148,-79,-32,-8,-18,-61,-104,-105,-72,-50,-90,-151,-178,-199,-203,-111,7,16,-53,-24,115,210,129,-19,-16,96,116,-13,-144,-122,13,52,-89,-246,-245,-142,-122,-199,-252,-251,-242,-223,-156,-94,-105,-158,-156,-124,-202,-185,300,940,924,25,-989,-1255,-785,-204,62,84,26,-18,0,28,20,6,13,26,-12,-64,-54,1,33,21,-10,4,89,201,222,76,-120,-206,-185,-123,-27,101,188,172,79,-11,-61,-101,-119,-113,-159,-280,-356,-288,-156,-79,-55,-36,26,89,37,-99,-176,-122,-45,-15,-14,-10,-6,-42,-96,-45,65,81,-50,-212,-272,-222,-128,-60,-29,13,57,96,126,90,-12,-92,-87,-33,-31,-109,-206,-236,-158,0
person35,-75,-94,-102,-81,0,83,89,36,-16,-43,-72,-73,-53,-71,-109,-105,-59,-47,-78,-101,-58,45,92,49,-38,-141,-182,-167,-135,-80,9,62,17,-19,-16,3,73,96,18,-175,-329,-226,-180,-463,-476,493,1914,2290,1097,-553,-1342,-1215,-959,-806,-656,-459,-185,-9,-32,-141,-170,-9,149,78,-165,-264,-153,-27,44,-49,-167,-103,-46,-120,-254,-246,-10,174,6,-324,-335,2,259,213,-39,-215,-111,70,102,-17,-118,-1,203,226,56,-96,-93,-81,-117,-164,-249,-216,46,341,296,-119,-365,-156,171,148,-174,-300,-122,98,175,62,-157,-384,-444,-173,291,523,312,-75,-305,-300,-185,-86,9,104,110,75,168,319,282,94,-9,-23,-70,-169,-202,-89,31,19,-93,-185,-197,-219,-267,-347,-529,-633,-269,611,1396,1351,455,-552,-979,-906,-754,-610,-476,-396,-329,-266,-183,-47,110,156,44,-125,-198,-116,5,61,43,-57,-142,-170,-191,-121,6,6,-124,-221,-164,-65,-17,43,123,136,57,-5,-60,-175,-178,24,222,152,-107,-213,-73,107,125,-35,-238,-276,-59,158,123,-96,-244,-152,30,97,22,-68,-78,-89,-127,-114,-60,-16,-35,-61,-44,-43,-72,-101,-93,-63,-65,-94,-103,-86,-63,-48,-43,-74,-126,-130,-69,21,42,-16,-35,-39,-87,-147,-133,-48,-2,-27,-106,-171,-111,-82,-294,-482,-77,873,1473,1055,7,-745,-851,-683,-509,-355,-264,-213,-132,-36,-26,-91,-121,-74,-15,-28,-74,-85,-66,-42,-28,-17,-17,-29,-46,-74,-90,-69,-52,-73,-107,-89,-17,45,51,6,-45,-81,-83,-43,-10,-21,-64,-90,-62,-15,-9,-74,-158,-172,-130,-82,-44,-26,-29,-62,-99,-104,-82,-44,-21,-18,-34,-62,-79,-87,-74,-49,-42,-45,-43,-37,-26,-40,-59,-57,-37,-28,-56,-99,-115,-82,-38,-28,-38,-34,-24,-35,-61,-85,-98,-74,-39,-41,-73,-105,-72,-17,-70,-205,-128,327,769,673,72,-467,-556,-370,-271,-282,-264,-192,-125,-80,-52,-50,-68,-82,-79,-42,-5,2,-28,-68,-54,-15,-21,-47,-53,-29,-26,-51,-65,-53,-14,1,-5,-11,-49,-97,-137,-160,-143,-117,-105,-129,-147,-116,-69,-42,-47,-63,-58,-63,-70,-63,-44,-46,-65,-62,-46,-47,-62,-72,-52,-32,-26,-33,-57,-66,-60,-45,-29,-22,-17,-21,-36,-57,-73,-60,-44,-48,-75,-120,-128,-109,-84,-52,-22,5,8,-19,-46,-61,-70,-92,-109,-97,-81,-70,-76,-80,-78,-95,-105,-210,-377,-245,383,1030,981,237,-482,-666,-498,-399,-383,-298,-188,-123,-89,-59,-49,-67,-78,-74,-62,-46,-45,-37,-35,-40,-36,-42,-40,-47,-51,-45,-53,-57,-72,-79,-63,-49,-42,-48,-53,-58,-66,-57,-37,-33,-49,-80,-72,-48,-33,-36,-47,-47,-54,-63,-63,-66,-55,-56,-61,-67,-72,-57,-51,-50,-45,-40,-38,-43,-48,-48,-57,-58,-53,-55,-62,-72,-57,-50,-61,-69,-72,-59,-69,-86,-78,-67,-61,-61,-43,-17,-9,-22,-43,-55,-61,-68,-70,-77,-83,-75,-74,-47,-16,-144,-391,-290,425,1200,1216,411,-462,-762,-639,-511,-451,-356,-243,-175,-131,-94,-65,-43,-42,-41,-37,-39,-37,-44,-45,-46,-52,-44,-34,-33,-45,-55,-54,-62,-71,-78,-80,-76,-71,-63,-53,-59,-61,-58,-49,-47,-58,-58,-57,-51,-46,-46,-45,-49,-58,-65,-60,-47,-43,-42,-43,-57,-67,-72,-62,-46,-50,-50,-55,-53,-51,-53,-49,-57,-60,-60,-59,-55,-68,-78,-77,-65,-48,-50,-45,-23,0,4,-28,-59,-68,-66,-64,-69,-75,-74,-73,-60,-39,-139,-387,-377,261,1113,1320,625,-319,-757,-687,-538,-472,-375,-250,-170,-136,-112,-90,-66,-58,-55,-53,-57,-59,-66,-65,-55,-53,-51,-51,-61,-71,-75,-57,-42,-34,-36,-52,-55,-60,-73,-75,-70,-56,-50,-51,-51,-54,-49,-49,-48,-35,-37,-42,-48,-40,-28,-39,-50,-62,-56,-48,-53,-49,-48,-48,-48,-56,-55,-58,-56,-54,-55,-55,-56,0
person36,-61,-76,-98,-89,-64,-43,-38,-43,-39,-31,-25,-23,-22,-19,-18,-17,-8,1,3,8,17,22,8,-21,-54,-86,-120,-147,-164,-162,-157,-154,-146,-133,-114,-90,-78,-80,-88,-92,-78,-50,-28,-22,-37,-52,-58,-58,-48,-52,-72,-97,-113,-113,-105,-97,-86,-75,-54,-37,-31,-38,-60,-77,-77,-66,-63,-74,-71,-45,-16,0,-10,-30,-50,-69,-83,-85,-70,-43,-16,10,11,-12,-45,-63,-41,-16,-15,-44,-73,-68,-55,-92,-175,-125,243,693,685,72,-620,-784,-453,-109,-24,-61,-35,24,41,24,-4,-34,-62,-86,-98,-85,-51,-19,-11,-21,-38,-42,-41,-29,-10,6,3,-20,-31,-25,0,14,-11,-77,-146,-186,-206,-195,-155,-157,-268,-439,-500,-365,-146,-6,22,21,28,26,16,2,-4,10,14,12,2,-12,-33,-71,-114,-123,-110,-100,-111,-117,-92,-55,-37,-42,-49,-41,-24,-6,-5,-21,-35,-46,-50,-50,-47,-38,-26,-12,-10,-22,-36,-59,-78,-89,-83,-71,-48,-14,-5,-68,-143,6,447,760,472,-267,-792,-706,-303,-69,-86,-126,-91,-63,-70,-80,-67,-38,-38,-81,-130,-154,-139,-116,-116,-142,-157,-136,-103,-78,-72,-71,-91,-115,-120,-98,-74,-77,-101,-120,-125,-122,-110,-99,-86,-72,-62,-48,-37,-27,-20,-14,-12,-11,-12,-4,11,30,38,29,6,-11,-3,29,57,62,46,20,15,14,2,-20,-42,-52,-51,-37,-17,-7,-21,-46,-60,-47,-21,-8,-12,-21,-30,-32,-46,-64,-71,-67,-64,-68,-68,-64,-58,-58,-67,-71,-63,-43,-17,1,-9,-73,-133,19,450,769,504,-223,-765,-712,-320,-65,-62,-122,-147,-169,-169,-123,-60,-25,-20,-23,-11,-3,-15,-53,-84,-83,-58,-32,-17,-15,-18,-19,-20,-15,-20,-30,-36,-52,-83,-128,-172,-204,-208,-192,-185,-188,-182,-156,-116,-89,-74,-53,-27,0,8,2,-5,-11,-21,-48,-81,-105,-119,-106,-85,-65,-57,-66,-75,-75,-60,-45,-44,-51,-65,-82,-96,-96,-90,-86,-73,-54,-44,-50,-61,-47,-15,9,-2,-26,-49,-62,-78,-83,-82,-58,-39,-40,-52,-68,-76,-69,-62,-63,-78,-84,-66,-20,10,-26,-113,-60,296,703,637,-10,-682,-811,-458,-113,-41,-96,-108,-91,-78,-55,-38,-33,-36,-37,-34,-31,-29,-25,-30,-28,-19,-12,-11,-13,-14,-16,-16,-9,-2,4,2,-2,-16,-51,-89,-120,-145,-163,-175,-171,-156,-136,-108,-81,-62,-46,-35,-41,-43,-41,-22,-11,-103,-153,-16,43,-305,-958,-1355,-1119,-525,-93,26,76,156,225,256,198,84,4,20,133,261,305,267,228,208,122,-85,-304,-380,-334,-314,-381,-417,-329,-197,-112,-79,-65,-55,-52,-56,-38,-3,-13,-82,-41,303,738,727,105,-605,-782,-431,-46,61,5,-17,-4,3,6,7,0,-7,-5,-1,2,-1,0,3,2,0,-2,-3,4,6,15,23,27,26,15,6,-11,-35,-57,-83,-115,-146,-163,-158,-139,-114,-92,-75,-64,-54,-47,-40,-39,-34,-31,-30,-33,-36,-36,-39,-41,-40,-38,-40,-44,-41,-37,-44,-55,-62,-59,-54,-48,-48,-53,-51,-45,-48,-56,-68,-69,-59,-39,-30,-38,-54,-68,-83,-95,-103,-94,-83,-72,-68,-68,-59,-51,-44,-42,-45,-49,-59,-58,-32,-17,-60,-141,-61,328,735,631,-37,-684,-776,-415,-92,-37,-92,-91,-61,-51,-44,-48,-53,-57,-55,-52,-58,-62,-63,-55,-39,-24,-16,-16,-5,7,6,-7,-17,-15,-13,-17,-28,-46,-73,-112,-146,-172,-174,-154,-133,-118,-106,-98,-86,-71,-66,-60,-57,-57,-60,-62,-64,-61,-52,-49,-52,-51,-53,-63,-71,-69,-59,-55,-55,-56,-55,-51,-52,-55,-52,-48,-42,-37,-42,-50,-59,-64,-55,-40,-30,-28,-33,-50,-61,-74,-78,-74,-70,-67,-68,-69,-60,-47,-46,-62,-72,-62,-57,-61,-65,-49,-46,-112,-143,87,549,757,327,-435,-839,-642,-226,-29,-54,-84,-60,-38,-29,-31,-34,-37,-39,-34,0
person37,-61,-69,-93,-112,-107,-95,-94,-104,-113,-114,-111,-109,-104,-91,-69,-46,-24,-14,-16,-23,-30,-31,-34,-40,-41,-38,-29,-20,-25,-38,-54,-63,-70,-74,-81,-99,-108,-121,-202,-318,-283,65,553,775,524,3,-414,-548,-477,-336,-203,-117,-78,-70,-64,-55,-43,-25,-19,-12,-10,-17,-30,-45,-58,-71,-81,-100,-115,-116,-121,-137,-145,-142,-132,-111,-73,-22,17,29,31,49,89,126,137,122,101,106,132,139,95,-10,-141,-268,-339,-330,-276,-230,-218,-215,-196,-159,-136,-131,-114,-94,-75,-49,-22,-11,-28,-48,-43,-23,-18,-28,-24,-17,-27,-45,-29,0,13,-14,-56,-80,-82,-71,-60,-49,-31,-20,-28,-54,-66,-51,-29,-24,-49,-49,-23,-113,-311,-333,102,821,1213,892,122,-517,-746,-680,-519,-374,-255,-171,-129,-110,-91,-71,-43,-15,0,-6,-25,-49,-39,-19,-17,-53,-89,-103,-116,-131,-131,-111,-84,-73,-64,-50,-42,-47,-46,-35,-32,-35,-35,-30,-34,-53,-61,-52,-39,-38,-63,-80,-73,-62,-60,-54,-39,-26,-23,-36,-63,-90,-103,-95,-84,-95,-119,-121,-88,-64,-63,-71,-71,-65,-67,-75,-79,-74,-63,-57,-57,-60,-64,-57,-44,-32,-28,-26,-21,-13,-12,-27,-46,-45,-34,-23,-7,32,-6,-202,-363,-112,589,1207,1145,430,-370,-769,-783,-642,-483,-351,-259,-213,-194,-173,-152,-133,-126,-123,-112,-104,-109,-118,-130,-140,-145,-141,-129,-115,-104,-99,-96,-81,-55,-30,-16,-14,-20,-20,-12,0,9,5,-4,-16,-21,-29,-32,-37,-41,-42,-47,-57,-58,-48,-41,-39,-42,-36,-37,-45,-51,-42,-28,-28,-39,-38,-29,-15,-8,-16,-35,-54,-57,-56,-55,-57,-58,-50,-43,-38,-47,-64,-71,-53,-32,-41,-62,-73,-71,-61,-58,-68,-71,-60,-35,-28,-47,-65,-55,-23,-2,-4,-18,-38,-41,-36,-41,-50,-45,-4,-8,-153,-273,-37,567,1041,899,237,-427,-749,-809,-793,-738,-623,-462,-306,-188,-114,-73,-49,-33,-25,-26,-38,-55,-62,-55,-55,-80,-107,-113,-99,-90,-88,-79,-58,-33,-12,9,38,58,61,54,46,39,18,-10,-26,-18,-13,-22,-41,-44,-41,-34,-27,-21,-20,-18,-19,-29,-50,-50,-25,-9,-21,-34,-33,-25,-26,-31,-36,-41,-44,-40,-38,-46,-42,-14,6,1,-11,-11,-8,-6,-16,-29,-52,-70,-73,-62,-67,-87,-100,-103,-107,-120,-119,-101,-91,-102,-107,-100,-91,-89,-87,-80,-87,-68,-38,-150,-435,-523,-4,896,1385,989,53,-696,-929,-830,-627,-433,-285,-194,-150,-122,-95,-74,-64,-63,-57,-57,-63,-64,-71,-80,-96,-109,-118,-121,-123,-127,-115,-88,-54,-29,-7,18,40,52,44,42,54,60,41,13,0,4,1,-21,-34,-23,-19,-43,-60,-41,-6,-9,-37,-55,-47,-32,-25,-40,-56,-54,-44,-38,-49,-58,-45,-26,-44,-83,-87,-63,-48,-44,-59,-62,-61,-55,-58,-63,-70,-73,-63,-47,-46,-55,-66,-74,-71,-62,-58,-69,-99,-113,-103,-90,-84,-86,-77,-69,-64,-53,-43,-34,-38,-43,-44,-57,-68,-30,-31,-186,-349,-133,553,1181,1135,406,-417,-828,-834,-666,-492,-356,-259,-192,-149,-128,-125,-117,-102,-82,-68,-72,-93,-117,-124,-115,-110,-103,-102,-101,-104,-114,-111,-84,-50,-26,-11,8,27,40,34,28,21,19,17,9,-11,-23,-19,-7,-10,-26,-43,-55,-63,-53,-32,-19,-21,-26,-30,-42,-53,-50,-38,-39,-59,-74,-69,-47,-38,-50,-52,-50,-58,-69,-75,-60,-52,-62,-70,-65,-68,-88,-90,-68,-53,-58,-64,-56,-48,-42,-54,-63,-58,-47,-50,-68,-71,-60,-58,-80,-102,-99,-77,-64,-59,-57,-45,-42,-60,-90,-105,-84,-54,-57,-61,-32,-53,-198,-290,4,669,1170,1007,283,-442,-772,-753,-598,-437,-312,-222,-182,-168,-160,-145,-118,-101,-97,-83,-68,-81,-113,-126,-108,-80,-77,-88,-79,-58,-51,-58,-74,-81,-53,-11,12,16,39,54,37,-2,-30,-25,-2,-2,0
